                                                                                ECG                                                                             25.01.2516.42.59200 
Timestamp,Sample
1737823385.1638143,0
1737823385.1688142,0
1737823385.1738143,-3
1737823385.1788142,-5
1737823385.1838143,50
1737823385.1888142,-73
1737823385.1938143,-294
1737823385.1988142,785
1737823385.2038143,807
1737823385.2088141,-3874
1737823385.2138143,-3629
1737823385.2188141,9240
1737823385.2238142,11260
1737823385.2288141,-26822
1737823385.2338142,-86698
1737823385.238814,-108792
1737823385.2441683,0
1737823385.2491682,-1
1737823385.2541683,-1
1737823385.2591681,-2
1737823385.2641683,-48
1737823385.2691681,51
1737823385.2741683,191
1737823385.2791681,-642
1737823385.2841682,-493
1737823385.2891681,2755
1737823385.2941682,2275
1737823385.299168,-5701
1737823385.3041682,-6175
1737823385.309168,19101
1737823385.3141682,64510
1737823385.319168,101877
1737823385.324522,111775
1737823385.329522,103118
1737823385.334522,96564
1737823385.339522,97645
1737823385.344522,98115
1737823385.349522,95764
1737823385.354522,93985
1737823385.359522,92750
1737823385.364522,91287
1737823385.369522,89844
1737823385.374522,88450
1737823385.379522,87073
1737823385.384522,85714
1737823385.389522,84384
1737823385.394522,83069
1737823385.399522,81768
1737823385.404876,80486
1737823385.409876,79239
1737823385.414876,78025
1737823385.419876,76835
1737823385.424876,75651
1737823385.429876,74472
1737823385.434876,73310
1737823385.439876,72171
1737823385.444876,71053
1737823385.449876,69950
1737823385.454876,68860
1737823385.459876,67787
1737823385.464876,66726
1737823385.469876,65679
1737823385.474876,64648
1737823385.479876,63635
1737823385.48523,62640
1737823385.49023,61663
1737823385.49523,60699
1737823385.50023,59750
1737823385.50523,58814
1737823385.51023,57898
1737823385.51523,57004
1737823385.52023,56121
1737823385.52523,55234
1737823385.53023,54329
1737823385.53523,53390
1737823385.54023,52409
1737823385.54523,51360
1737823385.55023,50209
1737823385.55523,48928
1737823385.56023,47449
1737823385.565584,45617
1737823385.570584,43376
1737823385.575584,40705
1737823385.580584,37214
1737823385.585584,32206
1737823385.590584,25613
1737823385.595584,19549
1737823385.600584,16575
1737823385.605584,15210
1737823385.610584,10782
1737823385.615584,1559
1737823385.620584,-8436
1737823385.625584,-14091
1737823385.630584,-14903
1737823385.635584,-14273
1737823385.640584,-14641
1737823385.645938,-15376
1737823385.650938,-15486
1737823385.655938,-15378
1737823385.660938,-15363
1737823385.665938,-15278
1737823385.670938,-15116
1737823385.675938,-14943
1737823385.680938,-14774
1737823385.685938,-14606
1737823385.690938,-14422
1737823385.695938,-14219
1737823385.700938,-14019
1737823385.705938,-13828
1737823385.710938,-13636
1737823385.715938,-13430
1737823385.720938,-13228
1737823385.726292,-13032
1737823385.731292,-12852
1737823385.736292,-12680
1737823385.741292,-12504
1737823385.746292,-12316
1737823385.751292,-12113
1737823385.756292,-11907
1737823385.761292,-11723
1737823385.766292,-11555
1737823385.771292,-11397
1737823385.776292,-11233
1737823385.781292,-11067
1737823385.786292,-10901
1737823385.791292,-10733
1737823385.796292,-10576
1737823385.801292,-10422
1737823385.8066459,-10280
1737823385.8116457,-10135
1737823385.8166459,-9966
1737823385.8216457,-9800
1737823385.8266459,-9666
1737823385.8316457,-9556
1737823385.8366458,-9438
1737823385.8416457,-9291
1737823385.8466458,-9127
1737823385.8516457,-8972
1737823385.8566458,-8838
1737823385.8616457,-8708
1737823385.8666458,-8576
1737823385.8716457,-8454
1737823385.8766458,-8340
1737823385.881646,-8214
1737823385.8869996,-8071
1737823385.8919995,-7943
1737823385.8969996,-7833
1737823385.9019997,-7736
1737823385.9069996,-7631
1737823385.9119997,-7517
1737823385.9169996,-7411
1737823385.9219997,-7313
1737823385.9269996,-7209
1737823385.9319997,-7105
1737823385.9369996,-7016
1737823385.9419997,-6932
1737823385.9469995,-6841
1737823385.9519997,-6738
1737823385.9569995,-6638
1737823385.9619997,-6570
1737823385.9673536,-6533
1737823385.9723537,-6498
1737823385.9773536,-6452
1737823385.9823537,-6411
1737823385.9873536,-6390
1737823385.9923537,-6382
1737823385.9973536,-6386
1737823386.0023537,-6400
1737823386.0073535,-6434
1737823386.0123537,-6496
1737823386.0173535,-6575
1737823386.0223536,-6672
1737823386.0273535,-6782
1737823386.0323536,-6901
1737823386.0373535,-7018
1737823386.0423536,-7115
1737823386.0477076,-7212
1737823386.0527077,-7337
1737823386.0577075,-7412
1737823386.0627077,-7393
1737823386.0677075,-7505
1737823386.0727077,-7837
1737823386.0777075,-7998
1737823386.0827076,-7608
1737823386.0877075,-6909
1737823386.0927076,-6614
1737823386.0977075,-7075
1737823386.1027076,-7912
1737823386.1077075,-8572
1737823386.1127076,-8990
1737823386.1177075,-9428
1737823386.1227076,-9989
1737823386.1280615,-10633
1737823386.1330616,-11340
1737823386.1380615,-12005
1737823386.1430616,-12559
1737823386.1480615,-12996
1737823386.1530616,-13355
1737823386.1580615,-13653
1737823386.1630616,-13879
1737823386.1680615,-14047
1737823386.1730616,-14107
1737823386.1780615,-13958
1737823386.1830616,-13914
1737823386.1880617,-14226
1737823386.1930616,-13992
1737823386.1980617,-12166
1737823386.2030616,-9541
1737823386.2084155,-8451
1737823386.2134156,-10145
1737823386.2184155,-13287
1737823386.2234156,-15619
1737823386.2284155,-16465
1737823386.2334156,-16792
1737823386.2384157,-17250
1737823386.2434156,-17599
1737823386.2484157,-17733
1737823386.2534156,-17783
1737823386.2584157,-17778
1737823386.2634156,-17709
1737823386.2684157,-17594
1737823386.2734156,-17466
1737823386.2784157,-17344
1737823386.2834156,-17229
1737823386.2887695,-17095
1737823386.2937696,-16921
1737823386.2987697,-16706
1737823386.3037696,-16483
1737823386.3087697,-16299
1737823386.3137696,-16147
1737823386.3187697,-15978
1737823386.3237696,-15753
1737823386.3287697,-15499
1737823386.3337696,-15271
1737823386.3387697,-15088
1737823386.3437696,-14932
1737823386.3487697,-14764
1737823386.3537695,-14575
1737823386.3587697,-14373
1737823386.3637695,-14173
1737823386.3691235,-13984
1737823386.3741233,-13808
1737823386.3791234,-13636
1737823386.3841233,-13457
1737823386.3891234,-13252
1737823386.3941233,-13027
1737823386.3991234,-12826
1737823386.4041233,-12669
1737823386.4091234,-12523
1737823386.4141233,-12346
1737823386.4191234,-12146
1737823386.4241233,-11956
1737823386.4291234,-11772
1737823386.4341235,-11584
1737823386.4391234,-11403
1737823386.4441235,-11257
1737823386.4494774,-11148
1737823386.4544773,-11049
1737823386.4594774,-10912
1737823386.4644773,-10737
1737823386.4694774,-10551
1737823386.4744773,-10381
1737823386.4794774,-10239
1737823386.4844773,-10113
1737823386.4894774,-9984
1737823386.4944775,-9836
1737823386.4994774,-9674
1737823386.5044775,-9525
1737823386.5094774,-9385
1737823386.5144775,-9269
1737823386.5194774,-9171
1737823386.5244775,-9069
1737823386.5298312,-8937
1737823386.5348313,-8769
1737823386.5398312,-8604
1737823386.5448313,-8463
1737823386.5498312,-8347
1737823386.5548313,-8247
1737823386.5598311,-8154
1737823386.5648313,-8048
1737823386.5698311,-7912
1737823386.5748312,-7756
1737823386.5798311,-7630
1737823386.5848312,-7547
1737823386.589831,-7463
1737823386.5948312,-7337
1737823386.599831,-7203
1737823386.6048312,-7097
1737823386.6101851,-7020
1737823386.6151853,-6950
1737823386.6201851,-6864
1737823386.6251853,-6749
1737823386.6301851,-6633
1737823386.6351852,-6542
1737823386.640185,-6475
1737823386.6451852,-6399
1737823386.650185,-6284
1737823386.6551852,-6135
1737823386.660185,-6000
1737823386.6651852,-5904
1737823386.670185,-5846
1737823386.6751852,-5805
1737823386.6801853,-5737
1737823386.6851852,-5619
1737823386.6905391,-5494
1737823386.6955392,-5409
1737823386.700539,-5354
1737823386.7055392,-5289
1737823386.710539,-5197
1737823386.7155392,-5101
1737823386.720539,-5041
1737823386.7255392,-5022
1737823386.730539,-4994
1737823386.7355392,-4930
1737823386.7405393,-4842
1737823386.7455392,-4754
1737823386.7505393,-4668
1737823386.7555392,-4576
1737823386.7605393,-4467
1737823386.7655392,-4401
1737823386.770893,-4390
1737823386.7758932,-4356
1737823386.780893,-4269
1737823386.7858932,-4183
1737823386.7908933,-4137
1737823386.7958932,-4119
1737823386.8008933,-4076
1737823386.8058932,-4010
1737823386.8108933,-3952
1737823386.8158932,-3908
1737823386.8208933,-3856
1737823386.8258932,-3793
1737823386.8308933,-3734
1737823386.8358932,-3676
1737823386.8408933,-3597
1737823386.8458931,-3516
1737823386.8512473,-3453
1737823386.8562472,-3429
1737823386.8612473,-3410
1737823386.8662472,-3373
1737823386.8712473,-3303
1737823386.8762472,-3222
1737823386.8812473,-3152
1737823386.8862472,-3110
1737823386.8912473,-3085
1737823386.8962471,-3056
1737823386.9012473,-3011
1737823386.9062471,-2954
1737823386.9112473,-2890
1737823386.9162471,-2847
1737823386.9212472,-2835
1737823386.9262471,-2831
1737823386.931601,-2800
1737823386.936601,-2743
1737823386.941601,-2706
1737823386.946601,-2692
1737823386.951601,-2663
1737823386.956601,-2603
1737823386.961601,-2540
1737823386.966601,-2513
1737823386.971601,-2501
1737823386.976601,-2470
1737823386.981601,-2416
1737823386.986601,-2371
1737823386.991601,-2347
1737823386.996601,-2329
1737823387.001601,-2320
1737823387.006601,-2302
1737823387.011955,-2253
1737823387.016955,-2192
1737823387.021955,-2149
1737823387.026955,-2127
1737823387.031955,-2103
1737823387.036955,-2077
1737823387.041955,-2055
1737823387.046955,-2049
1737823387.051955,-2036
1737823387.056955,-1995
1737823387.061955,-1942
1737823387.066955,-1901
1737823387.071955,-1865
1737823387.076955,-1825
1737823387.081955,-1789
1737823387.086955,-1763
1737823387.0923088,-1748
1737823387.0973089,-1750
1737823387.1023088,-1757
1737823387.1073089,-1737
1737823387.1123087,-1678
1737823387.1173089,-1610
1737823387.1223087,-1568
1737823387.1273088,-1561
1737823387.1323087,-1540
1737823387.1373088,-1511
1737823387.1423087,-1508
1737823387.1473088,-1520
1737823387.1523087,-1523
1737823387.1573088,-1515
1737823387.1623087,-1511
1737823387.1673088,-1492
1737823387.1726627,-1441
1737823387.1776628,-1386
1737823387.1826627,-1370
1737823387.1876628,-1389
1737823387.1926627,-1387
1737823387.1976628,-1344
1737823387.2026627,-1302
1737823387.2076628,-1297
1737823387.2126627,-1307
1737823387.2176628,-1302
1737823387.2226627,-1285
1737823387.2276628,-1271
1737823387.232663,-1268
1737823387.2376628,-1261
1737823387.242663,-1241
1737823387.2476628,-1221
1737823387.2530167,-1197
1737823387.2580168,-1152
1737823387.2630167,-1086
1737823387.2680168,-1025
1737823387.2730167,-1022
1737823387.2780168,-1066
1737823387.2830167,-1105
1737823387.2880168,-1091
1737823387.293017,-1038
1737823387.2980168,-995
1737823387.303017,-994
1737823387.3080168,-1016
1737823387.313017,-1015
1737823387.3180168,-974
1737823387.323017,-923
1737823387.3280168,-892
1737823387.3333707,-890
1737823387.3383708,-907
1737823387.343371,-912
1737823387.3483708,-897
1737823387.353371,-872
1737823387.3583708,-842
1737823387.363371,-821
1737823387.3683708,-813
1737823387.373371,-814
1737823387.3783708,-819
1737823387.3833709,-833
1737823387.3883708,-845
1737823387.3933709,-837
1737823387.3983707,-820
1737823387.4033709,-792
1737823387.4083707,-781
1737823387.413725,-792
1737823387.4187248,-802
1737823387.423725,-766
1737823387.4287248,-719
1737823387.4337249,-705
1737823387.4387248,-725
1737823387.4437249,-746
1737823387.4487247,-745
1737823387.4537249,-728
1737823387.4587247,-718
1737823387.4637249,-718
1737823387.4687247,-708
1737823387.4737248,-698
1737823387.4787247,-701
1737823387.4837248,-711
1737823387.4887247,-706
1737823387.4940789,-688
1737823387.4990788,-680
1737823387.5040789,-678
1737823387.5090787,-664
1737823387.5140789,-636
1737823387.5190787,-623
1737823387.5240788,-616
1737823387.5290787,-588
1737823387.5340788,-554
1737823387.5390787,-561
1737823387.5440788,-598
1737823387.5490787,-608
1737823387.5540788,-567
1737823387.5590787,-531
1737823387.5640788,-543
1737823387.5690787,-569
1737823387.5744326,-554
1737823387.5794325,-509
1737823387.5844326,-488
1737823387.5894327,-493
1737823387.5944326,-488
1737823387.5994327,-471
1737823387.6044326,-469
1737823387.6094327,-496
1737823387.6144326,-514
1737823387.6194327,-521
1737823387.6244326,-520
1737823387.6294327,-518
1737823387.6344326,-506
1737823387.6394327,-481
1737823387.6444325,-463
1737823387.6494327,-456
1737823387.6547863,-456
1737823387.6597865,-461
1737823387.6647863,-457
1737823387.6697865,-440
1737823387.6747863,-431
1737823387.6797864,-449
1737823387.6847863,-470
1737823387.6897864,-453
1737823387.6947863,-409
1737823387.6997864,-394
1737823387.7047863,-418
1737823387.7097864,-441
1737823387.7147863,-427
1737823387.7197864,-388
1737823387.7247863,-357
1737823387.7297864,-356
1737823387.7351403,-382
1737823387.7401404,-416
1737823387.7451403,-437
1737823387.7501404,-434
1737823387.7551403,-416
1737823387.7601404,-396
1737823387.7651403,-376
1737823387.7701404,-354
1737823387.7751403,-341
1737823387.7801404,-338
1737823387.7851405,-326
1737823387.7901404,-302
1737823387.7951405,-292
1737823387.8001404,-310
1737823387.8051405,-343
1737823387.8101404,-355
1737823387.8154943,-328
1737823387.8204944,-295
1737823387.8254943,-310
1737823387.8304944,-356
1737823387.8354945,-389
1737823387.8404944,-389
1737823387.8454945,-361
1737823387.8504944,-317
1737823387.8554945,-295
1737823387.8604944,-298
1737823387.8654945,-303
1737823387.8704944,-293
1737823387.8754945,-282
1737823387.8804944,-281
1737823387.8854945,-288
1737823387.8904943,-275
1737823387.8958485,-253
1737823387.9008484,-248
1737823387.9058485,-260
1737823387.9108484,-252
1737823387.9158485,-238
1737823387.9208484,-233
1737823387.9258485,-254
1737823387.9308484,-281
1737823387.9358485,-304
1737823387.9408484,-328
1737823387.9458485,-342
1737823387.9508483,-322
1737823387.9558485,-276
1737823387.9608483,-232
1737823387.9658484,-224
1737823387.9708483,-247
1737823387.9762025,-269
1737823387.9812024,-260
1737823387.9862025,-229
1737823387.9912024,-226
1737823387.9962025,-254
1737823388.0012023,-283
1737823388.0062025,-297
1737823388.0112023,-304
1737823388.0162024,-307
1737823388.0212023,-289
1737823388.0262024,-241
1737823388.0312023,-189
1737823388.0362024,-173
1737823388.0412023,-186
1737823388.0462024,-207
1737823388.0512023,-224
1737823388.0565565,-239
1737823388.0615563,-251
1737823388.0665565,-262
1737823388.0715563,-248
1737823388.0765564,-210
1737823388.0815563,-169
1737823388.0865564,-167
1737823388.0915563,-207
1737823388.0965564,-258
1737823388.1015563,-287
1737823388.1065564,-285
1737823388.1115563,-262
1737823388.1165564,-248
1737823388.1215563,-253
1737823388.1265564,-261
1737823388.1315565,-235
1737823388.1369102,-191
1737823388.1419103,-169
1737823388.1469102,-181
1737823388.1519103,-193
1737823388.1569102,-200
1737823388.1619103,-207
1737823388.1669102,-217
1737823388.1719103,-206
1737823388.1769102,-166
1737823388.1819103,-164
1737823388.1869102,-213
1737823388.1919103,-250
1737823388.1969101,-229
1737823388.2019103,-176
1737823388.2069101,-163
1737823388.2119102,-215
1737823388.2172642,-260
1737823388.2222643,-235
1737823388.2272642,-171
1737823388.2322643,-138
1737823388.2372642,-156
1737823388.2422643,-190
1737823388.2472641,-216
1737823388.2522643,-231
1737823388.2572641,-236
1737823388.2622643,-225
1737823388.2672641,-208
1737823388.2722642,-197
1737823388.277264,-206
1737823388.2822642,-217
1737823388.287264,-203
1737823388.2922642,-168
1737823388.297618,-145
1737823388.302618,-147
1737823388.307618,-168
1737823388.312618,-181
1737823388.317618,-174
1737823388.322618,-163
1737823388.327618,-171
1737823388.332618,-198
1737823388.337618,-216
1737823388.342618,-201
1737823388.347618,-169
1737823388.352618,-146
1737823388.357618,-144
1737823388.362618,-151
1737823388.367618,-158
1737823388.372618,-154
1737823388.377972,-137
1737823388.382972,-135
1737823388.387972,-150
1737823388.392972,-167
1737823388.397972,-167
1737823388.402972,-157
1737823388.407972,-149
1737823388.412972,-139
1737823388.417972,-132
1737823388.422972,-149
1737823388.427972,-179
1737823388.432972,-194
1737823388.437972,-167
1737823388.442972,-128
1737823388.447972,-126
1737823388.452972,-172
1737823388.458326,-214
1737823388.463326,-213
1737823388.468326,-171
1737823388.473326,-139
1737823388.478326,-162
1737823388.483326,-214
1737823388.488326,-227
1737823388.493326,-199
1737823388.498326,-165
1737823388.503326,-169
1737823388.508326,-195
1737823388.513326,-208
1737823388.518326,-185
1737823388.523326,-144
1737823388.528326,-131
1737823388.533326,-160
1737823388.53868,-181
1737823388.54368,-167
1737823388.54868,-146
1737823388.55368,-145
1737823388.55868,-155
1737823388.56368,-146
1737823388.56868,-113
1737823388.57368,-105
1737823388.57868,-135
1737823388.58368,-153
1737823388.58868,-140
1737823388.59368,-124
1737823388.59868,-136
1737823388.60368,-167
1737823388.60868,-177
1737823388.61368,-150
1737823388.619034,-123
1737823388.624034,-126
1737823388.629034,-155
1737823388.634034,-177
1737823388.639034,-178
1737823388.644034,-171
1737823388.649034,-166
1737823388.654034,-154
1737823388.659034,-125
1737823388.664034,-100
1737823388.669034,-87
1737823388.674034,-95
1737823388.679034,-121
1737823388.684034,-142
1737823388.689034,-142
1737823388.694034,-130
1737823388.6993878,-113
1737823388.704388,-99
1737823388.7093878,-96
1737823388.714388,-90
1737823388.7193878,-93
1737823388.724388,-112
1737823388.7293878,-144
1737823388.7343879,-164
1737823388.7393878,-160
1737823388.7443879,-151
1737823388.7493877,-141
1737823388.7543879,-125
1737823388.7593877,-99
1737823388.7643878,-92
1737823388.7693877,-103
1737823388.7743878,-122
1737823388.7797418,-127
1737823388.7847419,-125
1737823388.7897418,-123
1737823388.7947419,-116
1737823388.7997417,-107
1737823388.8047419,-107
1737823388.8097417,-129
1737823388.8147418,-157
1737823388.8197417,-177
1737823388.8247418,-187
1737823388.8297417,-171
1737823388.8347418,-128
1737823388.8397417,-81
1737823388.8447418,-73
1737823388.8497417,-97
1737823388.8547418,-122
1737823388.8600955,-133
1737823388.8650956,-132
1737823388.8700955,-138
1737823388.8750956,-155
1737823388.8800955,-163
1737823388.8850956,-137
1737823388.8900957,-94
1737823388.8950956,-78
1737823388.9000957,-97
1737823388.9050956,-128
1737823388.9100957,-139
1737823388.9150956,-129
1737823388.9200957,-117
1737823388.9250956,-119
1737823388.9300957,-151
1737823388.9350955,-191
1737823388.9404497,-217
1737823388.9454496,-208
1737823388.9504497,-183
1737823388.9554496,-163
1737823388.9604497,-151
1737823388.9654496,-143
1737823388.9704497,-139
1737823388.9754496,-153
1737823388.9804497,-176
1737823388.9854496,-189
1737823388.9904497,-185
1737823388.9954495,-173
1737823389.0004497,-159
1737823389.0054495,-153
1737823389.0104496,-159
1737823389.0154495,-175
1737823389.0208037,-171
1737823389.0258036,-145
1737823389.0308037,-111
1737823389.0358036,-94
1737823389.0408037,-90
1737823389.0458035,-80
1737823389.0508037,-81
1737823389.0558035,-115
1737823389.0608037,-170
1737823389.0658035,-193
1737823389.0708036,-171
1737823389.0758035,-153
1737823389.0808036,-153
1737823389.0858035,-148
1737823389.0908036,-128
1737823389.0958035,-111
1737823389.1011577,-101
1737823389.1061575,-73
1737823389.1111577,-55
1737823389.1161575,-84
1737823389.1211576,-158
1737823389.1261575,-206
1737823389.1311576,-184
1737823389.1361575,-139
1737823389.1411576,-122
1737823389.1461575,-137
1737823389.1511576,-150
1737823389.1561575,-153
1737823389.1611576,-140
1737823389.1661575,-114
1737823389.1711576,-84
1737823389.1761577,-61
1737823389.1815116,-57
1737823389.1865115,-73
1737823389.1915116,-113
1737823389.1965115,-154
1737823389.2015116,-164
1737823389.2065115,-141
1737823389.2115116,-121
1737823389.2165115,-137
1737823389.2215116,-157
1737823389.2265117,-161
1737823389.2315116,-166
1737823389.2365117,-172
1737823389.2415116,-165
1737823389.2465117,-129
1737823389.2515116,-103
1737823389.2565117,-105
1737823389.2618654,-111
1737823389.2668655,-103
1737823389.2718654,-96
1737823389.2768655,-113
1737823389.2818654,-124
1737823389.2868655,-122
1737823389.2918653,-120
1737823389.2968655,-145
1737823389.3018653,-178
1737823389.3068655,-194
1737823389.3118653,-172
1737823389.3168654,-154
1737823389.3218653,-161
1737823389.3268654,-173
1737823389.3318653,-160
1737823389.3368654,-129
1737823389.3422194,-107
1737823389.3472195,-114
1737823389.3522193,-120
1737823389.3572195,-101
1737823389.3622193,-90
1737823389.3672194,-114
1737823389.3722193,-146
1737823389.3772194,-140
1737823389.3822193,-109
1737823389.3872194,-92
1737823389.3922193,-119
1737823389.3972194,-150
1737823389.4022193,-168
1737823389.4072194,-180
1737823389.4122193,-188
1737823389.4172194,-177
1737823389.422573,-151
1737823389.4275732,-116
1737823389.4325733,-98
1737823389.4375732,-101
1737823389.4425733,-112
1737823389.4475732,-114
1737823389.4525733,-110
1737823389.4575732,-104
1737823389.4625733,-106
1737823389.4675732,-119
1737823389.4725733,-149
1737823389.4775732,-172
1737823389.4825733,-178
1737823389.4875731,-165
1737823389.4925733,-154
1737823389.4975731,-153
1737823389.5029273,-160
1737823389.5079272,-161
1737823389.5129273,-151
1737823389.5179272,-130
1737823389.5229273,-105
1737823389.5279272,-77
1737823389.5329273,-64
1737823389.5379272,-85
1737823389.5429273,-111
1737823389.5479271,-117
1737823389.5529273,-109
1737823389.5579271,-106
1737823389.5629272,-112
1737823389.5679271,-111
1737823389.5729272,-100
1737823389.577927,-101
1737823389.5832813,-125
1737823389.5882812,-159
1737823389.5932813,-183
1737823389.5982811,-177
1737823389.6032813,-140
1737823389.6082811,-96
1737823389.6132812,-82
1737823389.6182811,-114
1737823389.6232812,-149
1737823389.628281,-144
1737823389.6332812,-107
1737823389.638281,-64
1737823389.6432812,-57
1737823389.648281,-94
1737823389.6532812,-135
1737823389.658281,-152
1737823389.6636353,-147
1737823389.6686351,-136
1737823389.6736352,-116
1737823389.6786351,-79
1737823389.6836352,-58
1737823389.688635,-71
1737823389.6936352,-108
1737823389.698635,-127
1737823389.7036352,-121
1737823389.708635,-122
1737823389.7136352,-137
1737823389.718635,-135
1737823389.7236352,-118
1737823389.7286353,-104
1737823389.7336352,-109
1737823389.7386353,-123
1737823389.7439892,-137
1737823389.748989,-134
1737823389.7539892,-109
1737823389.758989,-89
1737823389.7639892,-96
1737823389.768989,-136
1737823389.7739892,-166
1737823389.7789893,-156
1737823389.7839892,-138
1737823389.7889893,-138
1737823389.7939892,-133
1737823389.7989893,-104
1737823389.8039892,-69
1737823389.8089893,-58
1737823389.8139892,-69
1737823389.8189893,-90
1737823389.8243432,-112
1737823389.8293433,-141
1737823389.8343432,-164
1737823389.8393433,-168
1737823389.8443432,-156
1737823389.8493433,-156
1737823389.8543432,-166
1737823389.8593433,-171
1737823389.8643432,-157
1737823389.8693433,-125
1737823389.8743432,-94
1737823389.8793433,-76
1737823389.8843431,-84
1737823389.8893433,-104
1737823389.8943431,-115
1737823389.8993433,-127
1737823389.904697,-142
1737823389.909697,-152
1737823389.914697,-148
1737823389.919697,-128
1737823389.924697,-114
1737823389.929697,-113
1737823389.934697,-135
1737823389.939697,-149
1737823389.944697,-139
1737823389.949697,-109
1737823389.954697,-86
1737823389.959697,-99
1737823389.964697,-127
1737823389.969697,-138
1737823389.974697,-130
1737823389.979697,-129
1737823389.985051,-143
1737823389.9900508,-149
1737823389.995051,-135
1737823390.0000508,-131
1737823390.005051,-146
1737823390.0100508,-149
1737823390.015051,-137
1737823390.0200508,-132
1737823390.0250509,-148
1737823390.0300508,-156
1737823390.0350509,-129
1737823390.0400507,-87
1737823390.0450509,-75
1737823390.0500507,-92
1737823390.0550508,-108
1737823390.0600507,-111
1737823390.065405,-113
1737823390.0704048,-124
1737823390.075405,-143
1737823390.0804048,-164
1737823390.0854049,-160
1737823390.0904047,-132
1737823390.0954049,-96
1737823390.1004047,-77
1737823390.1054049,-93
1737823390.1104047,-129
1737823390.1154048,-146
1737823390.1204047,-135
1737823390.1254048,-116
1737823390.1304047,-108
1737823390.1354048,-120
1737823390.1404047,-143
1737823390.1457589,-167
1737823390.1507587,-181
1737823390.1557589,-175
1737823390.1607587,-141
1737823390.1657588,-102
1737823390.1707587,-84
1737823390.1757588,-84
1737823390.1807587,-105
1737823390.1857588,-131
1737823390.1907587,-139
1737823390.1957588,-128
1737823390.2007587,-114
1737823390.2057588,-110
1737823390.2107587,-122
1737823390.2157588,-147
1737823390.220759,-158
1737823390.2261128,-149
1737823390.2311127,-133
1737823390.2361128,-128
1737823390.2411127,-151
1737823390.2461128,-177
1737823390.2511127,-178
1737823390.2561128,-161
1737823390.2611127,-154
1737823390.2661128,-156
1737823390.271113,-142
1737823390.2761128,-120
1737823390.281113,-107
1737823390.2861128,-117
1737823390.291113,-134
1737823390.2961128,-141
1737823390.301113,-138
1737823390.3064668,-124
1737823390.3114667,-92
1737823390.3164668,-58
1737823390.3214667,-53
1737823390.3264668,-72
1737823390.331467,-94
1737823390.3364668,-105
1737823390.341467,-112
1737823390.3464668,-123
1737823390.351467,-141
1737823390.3564668,-148
1737823390.361467,-143
1737823390.3664668,-134
1737823390.3714669,-126
1737823390.3764668,-131
1737823390.3814669,-147
1737823390.3868208,-148
1737823390.391821,-132
1737823390.3968208,-114
1737823390.401821,-102
1737823390.4068208,-77
1737823390.411821,-42
1737823390.4168208,-48
1737823390.4218209,-100
1737823390.4268208,-139
1737823390.4318209,-131
1737823390.4368207,-123
1737823390.4418209,-130
1737823390.4468207,-141
1737823390.4518209,-123
1737823390.4568207,-97
1737823390.4618208,-98
1737823390.4671745,-111
1737823390.4721746,-109
1737823390.4771745,-107
1737823390.4821746,-123
1737823390.4871745,-145
1737823390.4921746,-157
1737823390.4971745,-157
1737823390.5021746,-134
1737823390.5071745,-87
1737823390.5121746,-65
1737823390.5171745,-93
1737823390.5221746,-160
1737823390.5271747,-200
1737823390.5321746,-157
1737823390.5371747,-70
1737823390.5421746,-19
1737823390.5475285,-38
1737823390.5525286,-87
1737823390.5575285,-127
1737823390.5625286,-147
1737823390.5675285,-143
1737823390.5725286,-132
1737823390.5775287,-127
1737823390.5825286,-136
1737823390.5875287,-151
1737823390.5925286,-158
1737823390.5975287,-137
1737823390.6025286,-108
1737823390.6075287,-108
1737823390.6125286,-148
1737823390.6175287,-170
1737823390.6225286,-147
1737823390.6278825,-98
1737823390.6328824,-79
1737823390.6378825,-125
1737823390.6428823,-193
1737823390.6478825,-227
1737823390.6528823,-210
1737823390.6578825,-159
1737823390.6628823,-102
1737823390.6678824,-70
1737823390.6728823,-85
1737823390.6778824,-128
1737823390.6828823,-165
1737823390.6878824,-176
1737823390.6928823,-160
1737823390.6978824,-152
1737823390.7028823,-156
1737823390.7082365,-154
1737823390.7132363,-130
1737823390.7182364,-89
1737823390.7232363,-76
1737823390.7282364,-91
1737823390.7332363,-103
1737823390.7382364,-93
1737823390.7432363,-88
1737823390.7482364,-109
1737823390.7532363,-151
1737823390.7582364,-171
1737823390.7632363,-157
1737823390.7682364,-122
1737823390.7732365,-104
1737823390.7782364,-102
1737823390.7832365,-111
1737823390.7885904,-128
1737823390.7935903,-142
1737823390.7985904,-139
1737823390.8035903,-127
1737823390.8085904,-125
1737823390.8135903,-134
1737823390.8185904,-137
1737823390.8235905,-131
1737823390.8285904,-120
1737823390.8335905,-106
1737823390.8385904,-94
1737823390.8435905,-92
1737823390.8485904,-97
1737823390.8535905,-107
1737823390.8585904,-100
1737823390.8635905,-84
1737823390.8689444,-83
1737823390.8739443,-118
1737823390.8789444,-159
1737823390.8839445,-169
1737823390.8889444,-139
1737823390.8939445,-93
1737823390.8989444,-82
1737823390.9039445,-126
1737823390.9089444,-180
1737823390.9139445,-208
1737823390.9189444,-206
1737823390.9239445,-190
1737823390.9289443,-172
1737823390.9339445,-147
1737823390.9389443,-126
1737823390.9439445,-112
1737823390.9492984,-95
1737823390.9542985,-98
1737823390.9592984,-119
1737823390.9642985,-130
1737823390.9692984,-104
1737823390.9742985,-71
1737823390.9792984,-76
1737823390.9842985,-107
1737823390.9892983,-125
1737823390.9942985,-107
1737823390.9992983,-83
1737823391.0042984,-86
1737823391.0092983,-117
1737823391.0142984,-145
1737823391.0192983,-147
1737823391.0242984,-120
1737823391.029652,-86
1737823391.0346522,-87
1737823391.039652,-125
1737823391.0446522,-166
1737823391.049652,-170
1737823391.0546522,-149
1737823391.059652,-124
1737823391.0646522,-119
1737823391.0696523,-129
1737823391.0746522,-128
1737823391.0796523,-110
1737823391.0846522,-95
1737823391.0896523,-95
1737823391.0946522,-109
1737823391.0996523,-109
1737823391.1046522,-89
1737823391.110006,-76
1737823391.1150062,-90
1737823391.120006,-126
1737823391.1250062,-149
1737823391.1300063,-142
1737823391.1350062,-105
1737823391.1400063,-63
1737823391.1450062,-35
1737823391.1500063,-36
1737823391.1550062,-60
1737823391.1600063,-92
1737823391.1650062,-116
1737823391.1700063,-133
1737823391.1750062,-117
1737823391.1800063,-67
1737823391.1850061,-36
1737823391.19036,-67
1737823391.19536,-135
1737823391.20036,-163
1737823391.20536,-136
1737823391.21036,-103
1737823391.21536,-115
1737823391.22036,-137
1737823391.22536,-118
1737823391.23036,-83
1737823391.23536,-69
1737823391.24036,-84
1737823391.24536,-98
1737823391.25036,-91
1737823391.25536,-85
1737823391.26036,-109
1737823391.26536,-154
1737823391.270714,-177
1737823391.275714,-173
1737823391.280714,-177
1737823391.285714,-188
1737823391.290714,-178
1737823391.295714,-145
1737823391.300714,-106
1737823391.305714,-81
1737823391.310714,-72
1737823391.315714,-73
1737823391.320714,-81
1737823391.325714,-85
1737823391.330714,-84
1737823391.335714,-82
1737823391.340714,-83
1737823391.345714,-88
1737823391.351068,-84
1737823391.356068,-85
1737823391.361068,-114
1737823391.366068,-157
1737823391.371068,-176
1737823391.376068,-164
1737823391.381068,-138
1737823391.386068,-137
1737823391.391068,-154
1737823391.396068,-166
1737823391.401068,-163
1737823391.406068,-149
1737823391.411068,-135
1737823391.416068,-123
1737823391.421068,-123
1737823391.426068,-131
1737823391.431422,-135
1737823391.436422,-136
1737823391.441422,-139
1737823391.446422,-136
1737823391.451422,-120
1737823391.456422,-114
1737823391.461422,-145
1737823391.466422,-185
1737823391.471422,-186
1737823391.476422,-138
1737823391.481422,-89
1737823391.486422,-76
1737823391.491422,-89
1737823391.496422,-91
1737823391.501422,-83
1737823391.506422,-85
1737823391.511776,-101
1737823391.516776,-115
1737823391.521776,-117
1737823391.526776,-106
1737823391.531776,-93
1737823391.536776,-101
1737823391.541776,-127
1737823391.546776,-140
1737823391.551776,-122
1737823391.556776,-105
1737823391.561776,-106
1737823391.566776,-105
1737823391.571776,-81
1737823391.576776,-60
1737823391.581776,-57
1737823391.586776,-60
1737823391.59213,-50
1737823391.59713,-42
1737823391.60213,-70
1737823391.60713,-133
1737823391.61213,-182
1737823391.61713,-188
1737823391.62213,-159
1737823391.62713,-116
1737823391.63213,-99
1737823391.63713,-106
1737823391.64213,-101
1737823391.64713,-67
1737823391.65213,-43
1737823391.65713,-60
1737823391.66213,-109
1737823391.66713,-148
1737823391.6724837,-143
1737823391.6774838,-131
1737823391.682484,-150
1737823391.6874838,-178
1737823391.692484,-172
1737823391.6974838,-124
1737823391.702484,-81
1737823391.7074838,-66
1737823391.712484,-62
1737823391.7174838,-52
1737823391.7224839,-44
1737823391.7274837,-68
1737823391.7324839,-123
1737823391.7374837,-162
1737823391.7424839,-143
1737823391.7474837,-90
1737823391.7528377,-65
1737823391.7578375,-104
1737823391.7628376,-168
1737823391.7678375,-167
1737823391.7728376,-94
1737823391.7778375,-16
1737823391.7828376,-12
1737823391.7878375,-70
1737823391.7928376,-135
1737823391.7978375,-155
1737823391.8028376,-126
1737823391.8078375,-69
1737823391.8128376,-33
1737823391.8178377,-38
1737823391.8228376,-85
1737823391.8278377,-126
1737823391.8331916,-137
1737823391.8381915,-118
1737823391.8431916,-101
1737823391.8481915,-102
1737823391.8531916,-131
1737823391.8581915,-160
1737823391.8631916,-171
1737823391.8681917,-157
1737823391.8731916,-142
1737823391.8781917,-126
1737823391.8831916,-105
1737823391.8881917,-76
1737823391.8931916,-71
1737823391.8981917,-97
1737823391.9031916,-117
1737823391.9081917,-98
1737823391.9135456,-67
1737823391.9185455,-70
1737823391.9235456,-102
1737823391.9285457,-113
1737823391.9335456,-87
1737823391.9385457,-76
1737823391.9435456,-101
1737823391.9485457,-139
1737823391.9535456,-143
1737823391.9585457,-119
1737823391.9635456,-101
1737823391.9685457,-108
1737823391.9735456,-105
1737823391.9785457,-81
1737823391.9835455,-68
1737823391.9885457,-90
1737823391.9938996,-123
1737823391.9988997,-124
1737823392.0038996,-87
1737823392.0088997,-60
1737823392.0138996,-74
1737823392.0188997,-103
1737823392.0238996,-119
1737823392.0288997,-118
1737823392.0338995,-104
1737823392.0388997,-73
1737823392.0438995,-50
1737823392.0488997,-64
1737823392.0538995,-110
1737823392.0588996,-147
1737823392.0638995,-146
1737823392.0688996,-120
1737823392.0742536,-107
1737823392.0792537,-113
1737823392.0842535,-124
1737823392.0892537,-127
1737823392.0942535,-125
1737823392.0992537,-124
1737823392.1042535,-119
1737823392.1092536,-108
1737823392.1142535,-96
1737823392.1192536,-96
1737823392.1242535,-102
1737823392.1292536,-98
1737823392.1342535,-79
1737823392.1392536,-76
1737823392.1442535,-113
1737823392.1492536,-165
1737823392.1546075,-193
1737823392.1596076,-172
1737823392.1646075,-121
1737823392.1696076,-87
1737823392.1746075,-80
1737823392.1796076,-82
1737823392.1846075,-83
1737823392.1896076,-95
1737823392.1946075,-108
1737823392.1996076,-115
1737823392.2046075,-131
1737823392.2096076,-159
1737823392.2146077,-178
1737823392.2196076,-164
1737823392.2246077,-128
1737823392.2296076,-99
1737823392.2349615,-93
1737823392.2399614,-105
1737823392.2449615,-117
1737823392.2499614,-126
1737823392.2549615,-127
1737823392.2599614,-112
1737823392.2649615,-99
1737823392.2699614,-109
1737823392.2749615,-126
1737823392.2799613,-120
1737823392.2849615,-92
1737823392.2899613,-70
1737823392.2949615,-89
1737823392.2999613,-128
1737823392.3049614,-146
1737823392.3099613,-130
1737823392.3153155,-107
1737823392.3203154,-117
1737823392.3253155,-138
1737823392.3303154,-151
1737823392.3353155,-128
1737823392.3403153,-88
1737823392.3453155,-73
1737823392.3503153,-106
1737823392.3553154,-143
1737823392.3603153,-143
1737823392.3653154,-103
1737823392.3703153,-69
1737823392.3753154,-66
1737823392.3803153,-83
1737823392.3853154,-91
1737823392.3903153,-93
1737823392.3956692,-103
1737823392.400669,-103
1737823392.4056692,-78
1737823392.410669,-53
1737823392.4156692,-58
1737823392.4206693,-91
1737823392.4256692,-116
1737823392.4306693,-101
1737823392.4356692,-73
1737823392.4406693,-76
1737823392.4456692,-98
1737823392.4506693,-112
1737823392.4556692,-105
1737823392.4606693,-90
1737823392.4656692,-84
1737823392.4706693,-79
1737823392.4760232,-70
1737823392.4810233,-57
1737823392.4860232,-57
1737823392.4910233,-78
1737823392.4960232,-98
1737823392.5010233,-113
1737823392.5060232,-121
1737823392.5110233,-106
1737823392.5160232,-89
1737823392.5210233,-94
1737823392.5260231,-116
1737823392.5310233,-122
1737823392.5360231,-96
1737823392.5410233,-82
1737823392.5460231,-111
1737823392.5510232,-158
1737823392.5563772,-162
1737823392.5613773,-116
1737823392.5663772,-72
1737823392.5713773,-76
1737823392.5763772,-105
1737823392.5813773,-122
1737823392.5863771,-122
1737823392.5913773,-113
1737823392.5963771,-95
1737823392.6013772,-74
1737823392.6063771,-57
1737823392.6113772,-51
1737823392.616377,-47
1737823392.6213772,-51
1737823392.626377,-81
1737823392.6313772,-126
1737823392.6367311,-141
1737823392.6417313,-125
1737823392.6467311,-116
1737823392.6517313,-134
1737823392.6567311,-148
1737823392.6617312,-129
1737823392.666731,-89
1737823392.6717312,-71
1737823392.676731,-76
1737823392.6817312,-98
1737823392.686731,-111
1737823392.6917312,-113
1737823392.696731,-114
1737823392.7017312,-132
1737823392.706731,-141
1737823392.7117312,-124
1737823392.7170851,-83
1737823392.7220852,-58
1737823392.727085,-56
1737823392.7320852,-68
1737823392.737085,-77
1737823392.7420852,-87
1737823392.747085,-95
1737823392.7520852,-106
1737823392.757085,-107
1737823392.7620852,-91
1737823392.7670853,-53
1737823392.7720852,-34
1737823392.7770853,-69
1737823392.7820852,-140
1737823392.7870853,-173
1737823392.7920852,-141
1737823392.797439,-88
1737823392.802439,-68
1737823392.807439,-87
1737823392.812439,-104
1737823392.817439,-105
1737823392.822439,-113
1737823392.827439,-130
1737823392.832439,-129
1737823392.837439,-99
1737823392.842439,-73
1737823392.847439,-89
1737823392.852439,-129
1737823392.857439,-141
1737823392.862439,-118
1737823392.867439,-109
1737823392.872439,-131
1737823392.877793,-160
1737823392.882793,-155
1737823392.887793,-116
1737823392.892793,-77
1737823392.897793,-60
1737823392.902793,-69
1737823392.907793,-85
1737823392.912793,-94
1737823392.917793,-93
1737823392.922793,-89
1737823392.927793,-80
1737823392.932793,-81
1737823392.937793,-116
1737823392.942793,-159
1737823392.947793,-165
1737823392.952793,-123
1737823392.9581468,-74
1737823392.9631467,-67
1737823392.9681468,-96
1737823392.973147,-111
1737823392.9781468,-109
1737823392.983147,-110
1737823392.9881468,-131
1737823392.993147,-154
1737823392.9981468,-164
1737823393.003147,-157
1737823393.0081468,-130
1737823393.0131469,-102
1737823393.0181468,-86
1737823393.0231469,-86
1737823393.0281467,-100
1737823393.0331469,-114
1737823393.0385008,-129
1737823393.043501,-121
1737823393.0485008,-97
1737823393.053501,-94
1737823393.0585008,-109
1737823393.063501,-120
1737823393.0685008,-100
1737823393.0735009,-63
1737823393.0785007,-43
1737823393.0835009,-55
1737823393.0885007,-77
1737823393.0935009,-88
1737823393.0985007,-89
1737823393.1035008,-95
1737823393.1085007,-111
1737823393.1135008,-122
1737823393.1188548,-104
1737823393.1238549,-75
1737823393.1288548,-60
1737823393.1338549,-72
1737823393.1388547,-91
1737823393.1438549,-100
1737823393.1488547,-90
1737823393.1538548,-66
1737823393.1588547,-41
1737823393.1638548,-35
1737823393.1688547,-54
1737823393.1738548,-70
1737823393.1788547,-77
1737823393.1838548,-73
1737823393.1888547,-61
1737823393.1938548,-47
1737823393.1992087,-47
1737823393.2042089,-67
1737823393.2092087,-95
1737823393.2142088,-96
1737823393.2192087,-71
1737823393.2242088,-45
1737823393.2292087,-56
1737823393.2342088,-62
1737823393.2392087,-31
1737823393.2442088,11
1737823393.2492087,11
1737823393.2542088,-53
1737823393.259209,-139
1737823393.2642088,-164
1737823393.269209,-126
1737823393.2742088,-79
1737823393.2795627,-57
1737823393.2845628,-64
1737823393.2895627,-78
1737823393.2945628,-88
1737823393.2995627,-100
1737823393.3045628,-120
1737823393.3095627,-130
1737823393.3145628,-130
1737823393.319563,-134
1737823393.3245628,-143
1737823393.329563,-146
1737823393.3345628,-151
1737823393.339563,-168
1737823393.3445628,-175
1737823393.349563,-161
1737823393.3545628,-141
1737823393.3599167,-130
1737823393.3649166,-145
1737823393.3699167,-173
1737823393.3749166,-175
1737823393.3799167,-142
1737823393.3849165,-100
1737823393.3899167,-84
1737823393.3949165,-90
1737823393.3999166,-99
1737823393.4049165,-88
1737823393.4099166,-78
1737823393.4149165,-87
1737823393.4199166,-96
1737823393.4249165,-99
1737823393.4299166,-104
1737823393.4349165,-104
1737823393.4402707,-84
1737823393.4452705,-65
1737823393.4502707,-69
1737823393.4552705,-102
1737823393.4602706,-132
1737823393.4652705,-137
1737823393.4702706,-132
1737823393.4752705,-119
1737823393.4802706,-105
1737823393.4852705,-107
1737823393.4902706,-118
1737823393.4952705,-112
1737823393.5002706,-78
1737823393.5052705,-59
1737823393.5102706,-84
1737823393.5152707,-106
1737823393.5206244,-90
1737823393.5256245,-45
1737823393.5306244,-32
1737823393.5356245,-62
1737823393.5406244,-93
1737823393.5456245,-118
1737823393.5506244,-156
1737823393.5556245,-198
1737823393.5606244,-205
1737823393.5656245,-161
1737823393.5706244,-106
1737823393.5756245,-81
1737823393.5806243,-90
1737823393.5856245,-113
1737823393.5906243,-129
1737823393.5956244,-133
1737823393.6009784,-106
1737823393.6059785,-67
1737823393.6109784,-70
1737823393.6159785,-131
1737823393.6209784,-181
1737823393.6259785,-162
1737823393.6309783,-104
1737823393.6359785,-84
1737823393.6409783,-109
1737823393.6459785,-130
1737823393.6509783,-123
1737823393.6559784,-112
1737823393.6609783,-105
1737823393.6659784,-88
1737823393.6709783,-70
1737823393.6759784,-69
1737823393.6813323,-90
1737823393.6863325,-108
1737823393.6913323,-115
1737823393.6963325,-114
1737823393.7013323,-112
1737823393.7063324,-101
1737823393.7113323,-86
1737823393.7163324,-90
1737823393.7213323,-106
1737823393.7263324,-116
1737823393.7313323,-124
1737823393.7363324,-121
1737823393.7413323,-97
1737823393.7463324,-73
1737823393.7513323,-67
1737823393.7563324,-91
1737823393.7616863,-118
1737823393.7666864,-118
1737823393.7716863,-99
1737823393.7766864,-92
1737823393.7816863,-113
1737823393.7866864,-130
1737823393.7916863,-139
1737823393.7966864,-134
1737823393.8016863,-118
1737823393.8066864,-96
1737823393.8116865,-94
1737823393.8166864,-110
1737823393.8216865,-135
1737823393.8266864,-141
1737823393.8316865,-128
1737823393.8366864,-116
1737823393.8420403,-111
1737823393.8470404,-110
1737823393.8520403,-108
1737823393.8570404,-94
1737823393.8620403,-77
1737823393.8670404,-74
1737823393.8720405,-91
1737823393.8770404,-111
1737823393.8820405,-115
1737823393.8870404,-106
1737823393.8920405,-100
1737823393.8970404,-111
1737823393.9020405,-111
1737823393.9070404,-98
1737823393.9120405,-97
1737823393.9170403,-120
1737823393.9223945,-146
1737823393.9273944,-146
1737823393.9323945,-116
1737823393.9373944,-82
1737823393.9423945,-61
1737823393.9473944,-51
1737823393.9523945,-58
1737823393.9573944,-88
1737823393.9623945,-121
1737823393.9673944,-139
1737823393.9723945,-145
1737823393.9773943,-136
1737823393.9823945,-125
1737823393.9873943,-120
1737823393.9923944,-125
1737823393.9973943,-116
1737823394.0027483,-105
1737823394.0077481,-101
1737823394.0127482,-112
1737823394.017748,-125
1737823394.0227482,-128
1737823394.027748,-117
1737823394.0327482,-108
1737823394.037748,-100
1737823394.0427482,-72
1737823394.047748,-25
1737823394.0527482,11
1737823394.0577483,9
1737823394.0627482,-37
1737823394.0677483,-92
1737823394.0727482,-116
1737823394.0777483,-108
1737823394.083102,-86
1737823394.088102,-77
1737823394.093102,-93
1737823394.098102,-115
1737823394.103102,-129
1737823394.108102,-118
1737823394.113102,-103
1737823394.118102,-100
1737823394.123102,-93
1737823394.128102,-69
1737823394.133102,-61
1737823394.138102,-90
1737823394.143102,-140
1737823394.148102,-161
1737823394.153102,-163
1737823394.158102,-175
1737823394.163456,-187
1737823394.168456,-160
1737823394.173456,-114
1737823394.178456,-98
1737823394.183456,-148
1737823394.188456,-202
1737823394.193456,-180
1737823394.198456,-89
1737823394.203456,-6
1737823394.208456,-9
1737823394.213456,-78
1737823394.218456,-125
1737823394.223456,-118
1737823394.228456,-109
1737823394.233456,-116
1737823394.238456,-111
1737823394.24381,-98
1737823394.24881,-100
1737823394.25381,-114
1737823394.25881,-118
1737823394.26381,-99
1737823394.26881,-73
1737823394.27381,-53
1737823394.27881,-54
1737823394.28381,-78
1737823394.28881,-121
1737823394.29381,-150
1737823394.29881,-146
1737823394.30381,-125
1737823394.30881,-124
1737823394.31381,-134
1737823394.31881,-135
1737823394.324164,-126
1737823394.329164,-110
1737823394.334164,-83
1737823394.339164,-74
1737823394.344164,-93
1737823394.349164,-132
1737823394.354164,-154
1737823394.359164,-151
1737823394.364164,-122
1737823394.369164,-90
1737823394.374164,-77
1737823394.379164,-99
1737823394.384164,-142
1737823394.389164,-169
1737823394.394164,-150
1737823394.399164,-111
1737823394.404518,-95
1737823394.409518,-102
1737823394.414518,-96
1737823394.419518,-62
1737823394.424518,-49
1737823394.429518,-83
1737823394.434518,-142
1737823394.439518,-175
1737823394.444518,-159
1737823394.449518,-129
1737823394.454518,-125
1737823394.459518,-127
1737823394.464518,-124
1737823394.469518,-123
1737823394.474518,-144
1737823394.479518,-174
1737823394.484872,-196
1737823394.489872,-184
1737823394.494872,-144
1737823394.499872,-96
1737823394.504872,-75
1737823394.509872,-89
1737823394.514872,-115
1737823394.519872,-131
1737823394.524872,-128
1737823394.529872,-128
1737823394.534872,-119
1737823394.539872,-102
1737823394.544872,-96
1737823394.549872,-110
1737823394.554872,-113
1737823394.559872,-95
1737823394.5652258,-91
1737823394.5702257,-114
1737823394.5752258,-134
1737823394.5802257,-119
1737823394.5852258,-80
1737823394.5902257,-61
1737823394.5952258,-77
1737823394.6002257,-107
1737823394.6052258,-138
1737823394.610226,-168
1737823394.6152258,-173
1737823394.620226,-153
1737823394.6252258,-130
1737823394.630226,-129
1737823394.6352258,-144
1737823394.640226,-156
1737823394.6455798,-152
1737823394.6505797,-136
1737823394.6555798,-124
1737823394.6605797,-126
1737823394.6655798,-132
1737823394.67058,-137
1737823394.6755798,-139
1737823394.68058,-134
1737823394.6855798,-148
1737823394.69058,-170
1737823394.6955798,-182
1737823394.70058,-162
1737823394.7055798,-121
1737823394.7105799,-77
1737823394.7155797,-60
1737823394.7205799,-74
1737823394.7259336,-106
1737823394.7309337,-141
1737823394.7359335,-145
1737823394.7409337,-123
1737823394.7459335,-108
1737823394.7509336,-121
1737823394.7559335,-154
1737823394.7609336,-174
1737823394.7659335,-153
1737823394.7709336,-117
1737823394.7759335,-111
1737823394.7809336,-137
1737823394.7859335,-147
1737823394.7909336,-127
1737823394.7959335,-99
1737823394.8009336,-96
1737823394.8062875,-109
1737823394.8112876,-130
1737823394.8162875,-143
1737823394.8212876,-140
1737823394.8262875,-135
1737823394.8312876,-134
1737823394.8362875,-149
1737823394.8412876,-166
1737823394.8462875,-157
1737823394.8512876,-120
1737823394.8562877,-93
1737823394.8612876,-101
1737823394.8662877,-135
1737823394.8712876,-171
1737823394.8762877,-190
1737823394.8812876,-177
1737823394.8866415,-129
1737823394.8916416,-78
1737823394.8966415,-63
1737823394.9016416,-91
1737823394.9066415,-128
1737823394.9116416,-137
1737823394.9166417,-123
1737823394.9216416,-102
1737823394.9266417,-81
1737823394.9316416,-60
1737823394.9366417,-60
1737823394.9416416,-85
1737823394.9466417,-116
1737823394.9516416,-126
1737823394.9566417,-99
1737823394.9616416,-58
1737823394.9669957,-46
1737823394.9719956,-80
1737823394.9769957,-125
1737823394.9819956,-142
1737823394.9869957,-116
1737823394.9919956,-94
1737823394.9969957,-102
1737823395.0019956,-142
1737823395.0069957,-173
1737823395.0119956,-173
1737823395.0169957,-150
1737823395.0219955,-130
1737823395.0269957,-130
1737823395.0319955,-137
1737823395.0369956,-127
1737823395.0419955,-88
1737823395.0473497,-50
1737823395.0523496,-46
1737823395.0573497,-72
1737823395.0623496,-96
1737823395.0673497,-95
1737823395.0723495,-70
1737823395.0773497,-53
1737823395.0823495,-65
1737823395.0873497,-101
1737823395.0923495,-129
1737823395.0973496,-133
1737823395.1023495,-107
1737823395.1073496,-80
1737823395.1123495,-56
1737823395.1173496,-40
1737823395.1223495,-41
1737823395.1277034,-72
1737823395.1327033,-100
1737823395.1377034,-91
1737823395.1427033,-53
1737823395.1477034,-47
1737823395.1527033,-76
1737823395.1577034,-101
1737823395.1627035,-89
1737823395.1677034,-60
1737823395.1727035,-58
1737823395.1777034,-94
1737823395.1827035,-130
1737823395.1877034,-137
1737823395.1927035,-122
1737823395.1977034,-101
1737823395.2027035,-82
1737823395.2080574,-66
1737823395.2130575,-60
1737823395.2180574,-63
1737823395.2230575,-83
1737823395.2280574,-100
1737823395.2330575,-110
1737823395.2380574,-116
1737823395.2430575,-130
1737823395.2480574,-145
1737823395.2530575,-149
1737823395.2580574,-132
1737823395.2630575,-100
1737823395.2680573,-71
1737823395.2730575,-80
1737823395.2780573,-115
1737823395.2830575,-149
1737823395.2884111,-135
1737823395.2934113,-83
1737823395.2984111,-66
1737823395.3034112,-110
1737823395.3084111,-159
1737823395.3134112,-149
1737823395.318411,-101
1737823395.3234112,-83
1737823395.328411,-111
1737823395.3334112,-119
1737823395.338411,-71
1737823395.3434112,-18
1737823395.348411,-17
1737823395.3534112,-47
1737823395.3584113,-76
1737823395.3634112,-99
1737823395.368765,-120
1737823395.3737652,-124
1737823395.378765,-105
1737823395.3837652,-82
1737823395.388765,-77
1737823395.3937652,-84
1737823395.398765,-92
1737823395.4037652,-82
1737823395.4087653,-80
1737823395.4137652,-85
1737823395.4187653,-94
1737823395.4237652,-100
1737823395.4287653,-105
1737823395.4337652,-95
1737823395.4387653,-74
1737823395.4437652,-46
1737823395.449119,-36
1737823395.4541192,-59
1737823395.459119,-92
1737823395.4641192,-104
1737823395.4691193,-108
1737823395.4741192,-122
1737823395.4791193,-143
1737823395.4841192,-157
1737823395.4891193,-170
1737823395.4941192,-176
1737823395.4991193,-162
1737823395.5041192,-120
1737823395.5091193,-66
1737823395.5141191,-42
1737823395.5191193,-51
1737823395.5241191,-49
1737823395.5294733,-45
1737823395.5344732,-58
1737823395.5394733,-101
1737823395.5444732,-139
1737823395.5494733,-147
1737823395.5544732,-120
1737823395.5594733,-103
1737823395.5644732,-110
1737823395.5694733,-129
1737823395.5744731,-139
1737823395.5794733,-145
1737823395.5844731,-141
1737823395.5894732,-122
1737823395.5944731,-95
1737823395.5994732,-74
1737823395.604473,-63
1737823395.6098273,-72
1737823395.6148272,-90
1737823395.6198273,-115
1737823395.6248271,-125
1737823395.6298273,-112
1737823395.6348271,-99
1737823395.6398273,-115
1737823395.6448271,-142
1737823395.6498272,-143
1737823395.654827,-119
1737823395.6598272,-98
1737823395.664827,-101
1737823395.6698272,-108
1737823395.674827,-106
1737823395.6798272,-108
1737823395.684827,-134
1737823395.6901813,-154
1737823395.6951811,-149
1737823395.7001812,-113
1737823395.7051811,-96
1737823395.7101812,-102
1737823395.715181,-131
1737823395.7201812,-146
1737823395.725181,-136
1737823395.7301812,-116
1737823395.735181,-113
1737823395.7401812,-125
1737823395.745181,-152
1737823395.7501812,-180
1737823395.7551813,-198
1737823395.7601812,-172
1737823395.7651813,-112
1737823395.770535,-54
1737823395.775535,-33
1737823395.780535,-44
1737823395.785535,-68
1737823395.790535,-86
1737823395.795535,-90
1737823395.800535,-103
1737823395.805535,-129
1737823395.810535,-130
1737823395.815535,-92
1737823395.820535,-57
1737823395.825535,-78
1737823395.830535,-121
1737823395.835535,-129
1737823395.840535,-86
1737823395.845535,-67
1737823395.8508887,-109
1737823395.8558888,-156
1737823395.8608887,-156
1737823395.8658888,-108
1737823395.8708887,-62
1737823395.8758888,-74
1737823395.8808887,-128
1737823395.8858888,-159
1737823395.8908887,-136
1737823395.8958888,-95
1737823395.9008887,-99
1737823395.9058888,-145
1737823395.910889,-177
1737823395.9158888,-178
1737823395.920889,-158
1737823395.9258888,-146
1737823395.9312427,-125
1737823395.9362428,-109
1737823395.9412427,-103
1737823395.9462428,-106
1737823395.9512427,-109
1737823395.9562428,-107
1737823395.961243,-103
1737823395.9662428,-100
1737823395.971243,-92
1737823395.9762428,-79
1737823395.981243,-73
1737823395.9862428,-83
1737823395.991243,-101
1737823395.9962428,-95
1737823396.0012429,-85
1737823396.0062428,-111
1737823396.011597,-163
1737823396.0165968,-198
1737823396.021597,-186
1737823396.0265968,-155
1737823396.031597,-131
1737823396.0365968,-105
1737823396.041597,-87
1737823396.0465968,-95
1737823396.0515969,-104
1737823396.0565968,-89
1737823396.0615969,-84
1737823396.0665967,-122
1737823396.0715969,-158
1737823396.0765967,-150
1737823396.0815969,-95
1737823396.0865967,-72
1737823396.091951,-104
1737823396.0969508,-135
1737823396.101951,-124
1737823396.1069508,-112
1737823396.1119509,-106
1737823396.1169508,-94
1737823396.1219509,-72
1737823396.1269507,-84
1737823396.1319509,-135
1737823396.1369507,-181
1737823396.1419508,-175
1737823396.1469507,-144
1737823396.1519508,-144
1737823396.1569507,-160
1737823396.1619508,-134
1737823396.1669507,-69
1737823396.1723049,-22
1737823396.1773047,-23
1737823396.1823049,-64
1737823396.1873047,-108
1737823396.1923048,-118
1737823396.1973047,-102
1737823396.2023048,-83
1737823396.2073047,-102
1737823396.2123048,-140
1737823396.2173047,-154
1737823396.2223048,-134
1737823396.2273047,-101
1737823396.2323048,-74
1737823396.2373047,-72
1737823396.2423048,-101
1737823396.247305,-140
1737823396.2526588,-154
1737823396.2576587,-133
1737823396.2626588,-117
1737823396.2676587,-125
1737823396.2726588,-130
1737823396.2776587,-116
1737823396.2826588,-121
1737823396.2876587,-152
1737823396.2926588,-172
1737823396.2976587,-159
1737823396.3026588,-150
1737823396.307659,-142
1737823396.3126588,-111
1737823396.317659,-49
1737823396.3226588,-22
1737823396.327659,-63
1737823396.3330126,-126
1737823396.3380127,-149
1737823396.3430126,-150
1737823396.3480127,-145
1737823396.3530126,-142
1737823396.3580127,-121
1737823396.3630126,-86
1737823396.3680127,-74
1737823396.3730125,-100
1737823396.3780127,-129
1737823396.3830125,-126
1737823396.3880126,-100
1737823396.3930125,-78
1737823396.3980126,-84
1737823396.4030125,-116
1737823396.4080126,-140
1737823396.4133666,-132
1737823396.4183667,-104
1737823396.4233665,-74
1737823396.4283667,-63
1737823396.4333665,-74
1737823396.4383667,-86
1737823396.4433665,-95
1737823396.4483666,-115
1737823396.4533665,-132
1737823396.4583666,-136
1737823396.4633665,-124
1737823396.4683666,-100
1737823396.4733665,-83
1737823396.4783666,-89
1737823396.4833665,-110
1737823396.4883666,-123
1737823396.4937203,-123
1737823396.4987204,-118
1737823396.5037203,-121
1737823396.5087204,-126
1737823396.5137205,-121
1737823396.5187204,-115
1737823396.5237205,-121
1737823396.5287204,-137
1737823396.5337205,-162
1737823396.5387204,-181
1737823396.5437205,-171
1737823396.5487204,-146
1737823396.5537205,-136
1737823396.5587204,-139
1737823396.5637205,-128
1737823396.5687203,-103
1737823396.5740745,-100
1737823396.5790744,-130
1737823396.5840745,-157
1737823396.5890744,-154
1737823396.5940745,-141
1737823396.5990744,-143
1737823396.6040745,-146
1737823396.6090744,-124
1737823396.6140745,-102
1737823396.6190743,-87
1737823396.6240745,-79
1737823396.6290743,-78
1737823396.6340744,-83
1737823396.6390743,-110
1737823396.6440744,-134
1737823396.6490743,-134
1737823396.6544285,-120
1737823396.6594284,-112
1737823396.6644285,-129
1737823396.6694283,-156
1737823396.6744285,-166
1737823396.6794283,-140
1737823396.6844285,-112
1737823396.6894283,-114
1737823396.6944284,-129
1737823396.6994283,-126
1737823396.7044284,-117
1737823396.7094283,-111
1737823396.7144284,-123
1737823396.7194283,-135
1737823396.7244284,-138
1737823396.7294283,-144
1737823396.7347825,-162
1737823396.7397823,-167
1737823396.7447824,-157
1737823396.7497823,-142
1737823396.7547824,-129
1737823396.7597823,-116
1737823396.7647824,-111
1737823396.7697823,-114
1737823396.7747824,-123
1737823396.7797823,-138
1737823396.7847824,-153
1737823396.7897823,-140
1737823396.7947824,-101
1737823396.7997825,-78
1737823396.8047824,-99
1737823396.8097825,-136
1737823396.8151364,-152
1737823396.8201363,-149
1737823396.8251364,-129
1737823396.8301363,-95
1737823396.8351364,-61
1737823396.8401363,-54
1737823396.8451364,-81
1737823396.8501365,-92
1737823396.8551364,-62
1737823396.8601365,-42
1737823396.8651364,-69
1737823396.8701365,-101
1737823396.8751364,-105
1737823396.8801365,-113
1737823396.8851364,-143
1737823396.8901365,-159
1737823396.8954902,-146
1737823396.9004903,-130
1737823396.9054902,-137
1737823396.9104903,-137
1737823396.9154902,-92
1737823396.9204903,-29
1737823396.9254901,-7
1737823396.9304903,-52
1737823396.9354901,-109
1737823396.9404902,-148
1737823396.9454901,-151
1737823396.9504902,-135
1737823396.95549,-113
1737823396.9604902,-81
1737823396.96549,-55
1737823396.9704902,-62
1737823396.9758441,-89
1737823396.9808443,-104
1737823396.9858441,-75
1737823396.9908442,-44
1737823396.9958441,-80
1737823397.0008442,-163
1737823397.005844,-201
1737823397.0108442,-163
1737823397.015844,-113
1737823397.0208442,-102
1737823397.025844,-125
1737823397.0308442,-134
1737823397.035844,-116
1737823397.0408442,-99
1737823397.0458443,-105
1737823397.0508442,-109
1737823397.056198,-108
1737823397.061198,-120
1737823397.066198,-141
1737823397.071198,-136
1737823397.076198,-104
1737823397.081198,-62
1737823397.086198,-68
1737823397.091198,-111
1737823397.096198,-141
1737823397.101198,-114
1737823397.106198,-62
1737823397.111198,-46
1737823397.116198,-81
1737823397.121198,-121
1737823397.126198,-141
1737823397.131198,-132
1737823397.136552,-129
1737823397.141552,-145
1737823397.146552,-163
1737823397.151552,-152
1737823397.156552,-111
1737823397.161552,-74
1737823397.166552,-75
1737823397.171552,-91
1737823397.176552,-90
1737823397.181552,-67
1737823397.186552,-68
1737823397.191552,-112
1737823397.196552,-147
1737823397.201552,-129
1737823397.206552,-95
1737823397.211552,-94
1737823397.216906,-118
1737823397.221906,-133
1737823397.226906,-119
1737823397.231906,-82
1737823397.236906,-46
1737823397.241906,-37
1737823397.246906,-53
1737823397.251906,-81
1737823397.256906,-100
1737823397.261906,-87
1737823397.266906,-78
1737823397.271906,-104
1737823397.276906,-142
1737823397.281906,-153
1737823397.286906,-143
1737823397.291906,-136
1737823397.29726,-140
1737823397.30226,-138
1737823397.30726,-127
1737823397.31226,-124
1737823397.31726,-151
1737823397.32226,-170
1737823397.32726,-148
1737823397.33226,-112
1737823397.33726,-100
1737823397.34226,-113
1737823397.34726,-135
1737823397.35226,-133
1737823397.35726,-84
1737823397.36226,-32
1737823397.36726,-23
1737823397.37226,-75
1737823397.377614,-129
1737823397.382614,-136
1737823397.387614,-103
1737823397.392614,-76
1737823397.397614,-71
1737823397.402614,-96
1737823397.407614,-135
1737823397.412614,-158
1737823397.417614,-140
1737823397.422614,-109
1737823397.427614,-100
1737823397.432614,-106
1737823397.437614,-105
1737823397.442614,-98
1737823397.447614,-105
1737823397.452614,-127
1737823397.4579678,-123
1737823397.4629679,-107
1737823397.4679677,-123
1737823397.4729679,-168
1737823397.4779677,-201
1737823397.4829679,-207
1737823397.4879677,-194
1737823397.4929678,-179
1737823397.4979677,-159
1737823397.5029678,-125
1737823397.5079677,-98
1737823397.5129678,-96
1737823397.5179677,-111
1737823397.5229678,-121
1737823397.5279677,-131
1737823397.5329678,-131
1737823397.5383217,-129
1737823397.5433218,-121
1737823397.5483217,-115
1737823397.5533218,-110
1737823397.5583217,-112
1737823397.5633218,-103
1737823397.5683217,-82
1737823397.5733218,-76
1737823397.5783217,-94
1737823397.5833218,-109
1737823397.5883217,-98
1737823397.5933218,-68
1737823397.598322,-75
1737823397.6033218,-123
1737823397.608322,-166
1737823397.6133218,-162
1737823397.6186757,-129
1737823397.6236756,-110
1737823397.6286757,-118
1737823397.6336756,-132
1737823397.6386757,-135
1737823397.6436756,-140
1737823397.6486757,-141
1737823397.6536756,-142
1737823397.6586757,-133
1737823397.6636755,-125
1737823397.6686757,-112
1737823397.6736755,-101
1737823397.6786757,-90
1737823397.6836755,-82
1737823397.6886756,-80
1737823397.6936755,-88
1737823564.192404,989
1737823564.197404,340
1737823564.202404,-541
1737823564.207404,-1053
1737823564.212404,-995
1737823564.217404,-678
1737823564.222404,-445
1737823564.227404,-352
1737823564.232404,-281
1737823564.237404,-209
1737823564.242404,-167
1737823564.247404,-157
1737823564.252404,-149
1737823564.257404,-131
1737823564.262404,-101
1737823564.267404,-81
1737823564.272758,-66
1737823564.277758,-65
1737823564.282758,-76
1737823564.287758,-91
1737823564.292758,-106
1737823564.297758,-124
1737823564.302758,-131
1737823564.307758,-108
1737823564.312758,-60
1737823564.317758,-20
1737823564.322758,-21
1737823564.327758,-53
1737823564.332758,-84
1737823564.337758,-88
1737823564.342758,-80
1737823564.347758,-71
1737823564.3531117,-72
1737823564.3581119,-71
1737823564.3631117,-66
1737823564.3681118,-54
1737823564.3731117,-33
1737823564.3781118,-13
1737823564.3831117,1
1737823564.3881118,13
1737823564.3931117,14
1737823564.3981118,-11
1737823564.4031117,-53
1737823564.4081118,-75
1737823564.4131117,-51
1737823564.4181118,-22
1737823564.423112,-29
1737823564.4281118,-67
1737823564.4334657,-94
1737823564.4384658,-85
1737823564.4434657,-64
1737823564.4484658,-66
1737823564.4534657,-90
1737823564.4584658,-122
1737823564.4634657,-144
1737823564.4684658,-150
1737823564.4734657,-152
1737823564.4784658,-157
1737823564.483466,-161
1737823564.4884658,-160
1737823564.493466,-153
1737823564.4984658,-142
1737823564.503466,-125
1737823564.5084658,-115
1737823564.5138197,-109
1737823564.5188196,-110
1737823564.5238197,-103
1737823564.5288196,-94
1737823564.5338197,-86
1737823564.5388196,-81
1737823564.5438197,-74
1737823564.5488195,-75
1737823564.5538197,-79
1737823564.5588195,-85
1737823564.5638196,-85
1737823564.5688195,-82
1737823564.5738196,-81
1737823564.5788195,-87
1737823564.5838196,-99
1737823564.5888195,-112
1737823564.5941737,-124
1737823564.5991735,-126
1737823564.6041737,-122
1737823564.6091735,-113
1737823564.6141737,-107
1737823564.6191735,-105
1737823564.6241736,-96
1737823564.6291735,-78
1737823564.6341736,-56
1737823564.6391735,-49
1737823564.6441736,-52
1737823564.6491735,-61
1737823564.6541736,-67
1737823564.6591735,-76
1737823564.6641736,-90
1737823564.6691737,-112
1737823564.6745276,-134
1737823564.6795275,-155
1737823564.6845276,-161
1737823564.6895275,-157
1737823564.6945276,-147
1737823564.6995275,-145
1737823564.7045276,-139
1737823564.7095275,-126
1737823564.7145276,-115
1737823564.7195275,-110
1737823564.7245276,-106
1737823564.7295277,-101
1737823564.7345276,-94
1737823564.7395277,-87
1737823564.7445276,-80
1737823564.7495277,-91
1737823564.7548816,-115
1737823564.7598815,-126
1737823564.7648816,-82
1737823564.7698815,49
1737823564.7748816,357
1737823564.7798817,816
1737823564.7848816,1109
1737823564.7898817,836
1737823564.7948816,19
1737823564.7998817,-801
1737823564.8048816,-1105
1737823564.8098817,-905
1737823564.8148816,-594
1737823564.8198817,-427
1737823564.8248816,-361
1737823564.8298817,-295
1737823564.8352356,-225
1737823564.8402357,-175
1737823564.8452356,-148
1737823564.8502357,-133
1737823564.8552356,-131
1737823564.8602357,-121
1737823564.8652356,-99
1737823564.8702357,-78
1737823564.8752356,-71
1737823564.8802357,-75
1737823564.8852355,-87
1737823564.8902357,-93
1737823564.8952355,-92
1737823564.9002357,-85
1737823564.9052355,-78
1737823564.9102356,-71
1737823564.9155893,-72
1737823564.9205894,-76
1737823564.9255893,-80
1737823564.9305894,-80
1737823564.9355893,-77
1737823564.9405894,-76
1737823564.9455893,-75
1737823564.9505894,-67
1737823564.9555893,-56
1737823564.9605894,-46
1737823564.9655893,-36
1737823564.9705894,-28
1737823564.9755895,-20
1737823564.9805894,-15
1737823564.9855895,-15
1737823564.9905894,-17
1737823564.9959433,-20
1737823565.0009434,-23
1737823565.0059433,-21
1737823565.0109434,-25
1737823565.0159433,-41
1737823565.0209434,-66
1737823565.0259435,-87
1737823565.0309434,-90
1737823565.0359435,-85
1737823565.0409434,-81
1737823565.0459435,-88
1737823565.0509434,-99
1737823565.0559435,-111
1737823565.0609434,-124
1737823565.0659435,-139
1737823565.0709434,-156
1737823565.0762973,-169
1737823565.0812972,-166
1737823565.0862973,-156
1737823565.0912971,-141
1737823565.0962973,-129
1737823565.1012971,-113
1737823565.1062973,-94
1737823565.1112971,-79
1737823565.1162972,-74
1737823565.1212971,-75
1737823565.1262972,-78
1737823565.131297,-73
1737823565.1362972,-65
1737823565.141297,-63
1737823565.1462972,-67
1737823565.151297,-73
1737823565.1566513,-76
1737823565.1616511,-79
1737823565.1666512,-85
1737823565.1716511,-91
1737823565.1766512,-94
1737823565.181651,-98
1737823565.1866512,-96
1737823565.191651,-96
1737823565.1966512,-91
1737823565.201651,-90
1737823565.2066512,-93
1737823565.211651,-104
1737823565.2166512,-110
1737823565.2216513,-107
1737823565.2266512,-91
1737823565.2316513,-74
1737823565.2370052,-54
1737823565.242005,-34
1737823565.2470052,-14
1737823565.252005,-21
1737823565.2570052,-39
1737823565.262005,-64
1737823565.2670052,-82
1737823565.272005,-99
1737823565.2770052,-122
1737823565.2820053,-149
1737823565.2870052,-164
1737823565.2920053,-172
1737823565.2970052,-176
1737823565.3020053,-166
1737823565.3070052,-141
1737823565.3120053,-122
1737823565.3173592,-116
1737823565.322359,-120
1737823565.3273592,-115
1737823565.3323593,-108
1737823565.3373592,-106
1737823565.3423593,-104
1737823565.3473592,-105
1737823565.3523593,-108
1737823565.3573592,-117
1737823565.3623593,-111
1737823565.3673592,-75
1737823565.3723593,19
1737823565.3773592,270
1737823565.3823593,705
1737823565.3873591,1065
1737823565.3923593,927
1737823565.3977132,203
1737823565.4027133,-647
1737823565.4077132,-1064
1737823565.4127133,-944
1737823565.4177132,-629
1737823565.4227133,-427
1737823565.4277132,-350
1737823565.4327133,-300
1737823565.4377131,-247
1737823565.4427133,-208
1737823565.4477131,-179
1737823565.4527133,-153
1737823565.4577131,-129
1737823565.4627132,-105
1737823565.467713,-87
1737823565.4727132,-78
1737823565.478067,-73
1737823565.483067,-72
1737823565.488067,-80
1737823565.493067,-87
1737823565.498067,-91
1737823565.503067,-85
1737823565.508067,-80
1737823565.513067,-72
1737823565.518067,-65
1737823565.523067,-60
1737823565.528067,-63
1737823565.533067,-70
1737823565.538067,-76
1737823565.543067,-72
1737823565.548067,-59
1737823565.553067,-43
1737823565.558421,-43
1737823565.563421,-51
1737823565.568421,-65
1737823565.573421,-55
1737823565.578421,-37
1737823565.583421,-15
1737823565.588421,-2
1737823565.593421,2
1737823565.598421,-9
1737823565.603421,-22
1737823565.608421,-32
1737823565.613421,-34
1737823565.618421,-42
1737823565.623421,-54
1737823565.628421,-65
1737823565.633421,-55
1737823565.6387749,-51
1737823565.6437747,-69
1737823565.6487749,-103
1737823565.6537747,-126
1737823565.6587749,-134
1737823565.6637747,-135
1737823565.6687748,-141
1737823565.6737747,-146
1737823565.6787748,-148
1737823565.6837747,-144
1737823565.6887748,-150
1737823565.6937747,-156
1737823565.6987748,-158
1737823565.7037747,-141
1737823565.7087748,-111
1737823565.7137747,-91
1737823565.7191288,-82
1737823565.7241287,-72
1737823565.7291288,-63
1737823565.7341287,-65
1737823565.7391288,-85
1737823565.7441287,-103
1737823565.7491288,-98
1737823565.7541287,-77
1737823565.7591288,-61
1737823565.7641287,-62
1737823565.7691288,-69
1737823565.774129,-76
1737823565.7791288,-82
1737823565.784129,-88
1737823565.7891288,-99
1737823565.794129,-109
1737823565.7994828,-111
1737823565.8044827,-105
1737823565.8094828,-92
1737823565.8144827,-83
1737823565.8194828,-88
1737823565.824483,-99
1737823565.8294828,-105
1737823565.834483,-93
1737823565.8394828,-78
1737823565.844483,-67
1737823565.8494828,-61
1737823565.854483,-43
1737823565.8594828,-22
1737823565.8644829,-9
1737823565.8694828,-23
1737823565.8744829,-55
1737823565.8798368,-97
1737823565.884837,-132
1737823565.8898368,-157
1737823565.894837,-166
1737823565.8998368,-154
1737823565.904837,-146
1737823565.9098368,-139
1737823565.914837,-129
1737823565.9198368,-122
1737823565.9248369,-117
1737823565.9298368,-125
1737823565.9348369,-133
1737823565.9398367,-123
1737823565.9448369,-108
1737823565.9498367,-100
1737823565.9548368,-106
1737823565.9601908,-108
1737823565.965191,-104
1737823565.9701908,-103
1737823565.9751909,-96
1737823565.9801908,-55
1737823565.9851909,71
1737823565.9901907,385
1737823565.9951909,845
1737823566.0001907,1113
1737823566.0051908,794
1737823566.0101907,-47
1737823566.0151908,-855
1737823566.0201907,-1119
1737823566.0251908,-882
1737823566.0301907,-566
1737823566.0351908,-420
1737823566.0405447,-371
1737823566.0455449,-295
1737823566.0505447,-212
1737823566.0555449,-167
1737823566.0605447,-149
1737823566.0655448,-128
1737823566.0705447,-104
1737823566.0755448,-101
1737823566.0805447,-116
1737823566.0855448,-124
1737823566.0905447,-111
1737823566.0955448,-91
1737823566.1005447,-83
1737823566.1055448,-75
1737823566.1105447,-62
1737823566.1155448,-61
1737823566.1208985,-75
1737823566.1258986,-97
1737823566.1308987,-100
1737823566.1358986,-83
1737823566.1408987,-68
1737823566.1458986,-71
1737823566.1508987,-90
1737823566.1558986,-101
1737823566.1608987,-94
1737823566.1658986,-78
1737823566.1708987,-61
1737823566.1758986,-47
1737823566.1808987,-38
1737823566.1858985,-31
1737823566.1908987,-24
1737823566.1958985,-29
1737823566.2012525,-29
1737823566.2062523,-17
1737823566.2112525,-6
1737823566.2162523,-9
1737823566.2212524,-27
1737823566.2262523,-55
1737823566.2312524,-67
1737823566.2362523,-70
1737823566.2412524,-69
1737823566.2462523,-81
1737823566.2512524,-95
1737823566.2562523,-106
1737823566.2612524,-112
1737823566.2662525,-122
1737823566.2712524,-136
1737823566.2762525,-151
1737823566.2816064,-161
1737823566.2866063,-170
1737823566.2916064,-171
1737823566.2966063,-170
1737823566.3016064,-168
1737823566.3066063,-169
1737823566.3116064,-164
1737823566.3166063,-136
1737823566.3216064,-108
1737823566.3266065,-95
1737823566.3316064,-97
1737823566.3366065,-93
1737823566.3416064,-79
1737823566.3466065,-65
1737823566.3516064,-69
1737823566.3566065,-75
1737823566.3619604,-75
1737823566.3669603,-71
1737823566.3719604,-78
1737823566.3769605,-88
1737823566.3819604,-99
1737823566.3869605,-107
1737823566.3919604,-109
1737823566.3969605,-103
1737823566.4019604,-100
1737823566.4069605,-103
1737823566.4119604,-107
1737823566.4169605,-110
1737823566.4219604,-109
1737823566.4269605,-109
1737823566.4319603,-112
1737823566.4369605,-112
1737823566.4423144,-107
1737823566.4473145,-102
1737823566.4523144,-87
1737823566.4573145,-75
1737823566.4623144,-62
1737823566.4673145,-53
1737823566.4723144,-43
1737823566.4773145,-39
1737823566.4823143,-40
1737823566.4873145,-53
1737823566.4923143,-69
1737823566.4973145,-92
1737823566.5023143,-121
1737823566.5073144,-148
1737823566.5123143,-167
1737823566.5173144,-175
1737823566.5226684,-177
1737823566.5276685,-178
1737823566.5326684,-167
1737823566.5376685,-145
1737823566.5426683,-127
1737823566.5476685,-117
1737823566.5526683,-110
1737823566.5576684,-105
1737823566.5626683,-108
1737823566.5676684,-121
1737823566.5726683,-131
1737823566.5776684,-122
1737823566.5826683,-122
1737823566.5876684,-131
1737823566.5926683,-124
1737823566.5976684,-78
1737823566.6030223,68
1737823566.6080225,420
1737823566.6130223,914
1737823566.6180224,1168
1737823566.6230223,797
1737823566.6280224,-77
1737823566.6330223,-874
1737823566.6380224,-1127
1737823566.6430223,-913
1737823566.6480224,-626
1737823566.6530223,-467
1737823566.6580224,-385
1737823566.6630225,-302
1737823566.6680224,-235
1737823566.6730225,-191
1737823566.6780224,-163
1737823566.6833763,-135
1737823566.6883762,-114
1737823566.6933763,-103
1737823566.6983762,-103
1737823566.7033763,-104
1737823566.7083762,-102
1737823566.7133763,-97
1737823566.7183762,-82
1737823566.7233763,-67
1737823566.7283762,-66
1737823566.7333763,-78
1737823566.7383761,-90
1737823566.7433763,-91
1737823566.7483761,-80
1737823566.7533762,-74
1737823566.7583761,-74
1737823566.7637303,-80
1737823566.7687302,-83
1737823566.7737303,-79
1737823566.7787302,-76
1737823566.7837303,-74
1737823566.7887301,-66
1737823566.7937303,-52
1737823566.7987301,-41
1737823566.8037302,-36
1737823566.8087301,-31
1737823566.8137302,-24
1737823566.81873,-16
1737823566.8237302,-13
1737823566.82873,-18
1737823566.8337302,-23
1737823566.83873,-30
1737823566.844084,-39
1737823566.849084,-51
1737823566.854084,-66
1737823566.859084,-73
1737823566.864084,-78
1737823566.869084,-81
1737823566.874084,-90
1737823566.879084,-104
1737823566.884084,-113
1737823566.889084,-123
1737823566.894084,-135
1737823566.899084,-144
1737823566.904084,-144
1737823566.909084,-140
1737823566.914084,-141
1737823566.919084,-142
1737823566.924438,-143
1737823566.929438,-136
1737823566.934438,-122
1737823566.939438,-111
1737823566.944438,-106
1737823566.949438,-104
1737823566.954438,-95
1737823566.959438,-80
1737823566.964438,-64
1737823566.969438,-54
1737823566.974438,-61
1737823566.979438,-77
1737823566.984438,-86
1737823566.989438,-85
1737823566.994438,-79
1737823566.999438,-78
1737823567.004792,-80
1737823567.009792,-87
1737823567.014792,-93
1737823567.019792,-102
1737823567.024792,-104
1737823567.029792,-102
1737823567.034792,-95
1737823567.039792,-94
1737823567.044792,-100
1737823567.049792,-100
1737823567.054792,-97
1737823567.059792,-99
1737823567.064792,-106
1737823567.069792,-102
1737823567.074792,-79
1737823567.079792,-56
1737823567.085146,-52
1737823567.090146,-65
1737823567.095146,-69
1737823567.100146,-46
1737823567.105146,-26
1737823567.110146,-24
1737823567.115146,-52
1737823567.120146,-87
1737823567.125146,-120
1737823567.130146,-147
1737823567.135146,-169
1737823567.140146,-179
1737823567.145146,-172
1737823567.150146,-154
1737823567.155146,-136
1737823567.160146,-121
1737823567.1655,-116
1737823567.1705,-118
1737823567.1755,-119
1737823567.1805,-118
1737823567.1855,-111
1737823567.1905,-106
1737823567.1955,-99
1737823567.2005,-96
1737823567.2055,-107
1737823567.2105,-122
1737823567.2155,-122
1737823567.2205,-89
1737823567.2255,1
1737823567.2305,231
1737823567.2355,648
1737823567.2405,1025
1737823567.245854,935
1737823567.2508538,254
1737823567.255854,-591
1737823567.2608538,-1033
1737823567.265854,-943
1737823567.2708538,-641
1737823567.2758539,-438
1737823567.2808537,-357
1737823567.2858539,-292
1737823567.2908537,-229
1737823567.2958539,-189
1737823567.3008537,-167
1737823567.3058538,-150
1737823567.3108537,-125
1737823567.3158538,-102
1737823567.3208537,-86
1737823567.3262079,-80
1737823567.3312078,-85
1737823567.3362079,-88
1737823567.3412077,-90
1737823567.3462079,-89
1737823567.3512077,-89
1737823567.3562078,-87
1737823567.3612077,-86
1737823567.3662078,-85
1737823567.3712077,-78
1737823567.3762078,-76
1737823567.3812077,-81
1737823567.3862078,-82
1737823567.3912077,-76
1737823567.3962078,-62
1737823567.4012077,-57
1737823567.4065616,-62
1737823567.4115615,-67
1737823567.4165616,-61
1737823567.4215617,-48
1737823567.4265616,-41
1737823567.4315617,-39
1737823567.4365616,-35
1737823567.4415617,-28
1737823567.4465616,-21
1737823567.4515617,-21
1737823567.4565616,-22
1737823567.4615617,-24
1737823567.4665616,-37
1737823567.4715617,-55
1737823567.4765615,-68
1737823567.4815617,-66
1737823567.4869156,-57
1737823567.4919157,-57
1737823567.4969156,-72
1737823567.5019157,-94
1737823567.5069156,-114
1737823567.5119157,-135
1737823567.5169156,-147
1737823567.5219157,-153
1737823567.5269156,-148
1737823567.5319157,-146
1737823567.5369155,-155
1737823567.5419157,-164
1737823567.5469155,-170
1737823567.5519156,-162
1737823567.5569155,-141
1737823567.5619156,-121
1737823567.5672696,-114
1737823567.5722697,-112
1737823567.5772696,-107
1737823567.5822697,-98
1737823567.5872695,-85
1737823567.5922697,-76
1737823567.5972695,-77
1737823567.6022696,-86
1737823567.6072695,-92
1737823567.6122696,-85
1737823567.6172695,-71
1737823567.6222696,-66
1737823567.6272695,-75
1737823567.6322696,-83
1737823567.6372695,-90
1737823567.6422696,-101
1737823567.6476235,-116
1737823567.6526237,-124
1737823567.6576235,-120
1737823567.6626236,-111
1737823567.6676235,-107
1737823567.6726236,-106
1737823567.6776235,-104
1737823567.6826236,-106
1737823567.6876235,-108
1737823567.6926236,-105
1737823567.6976235,-92
1737823567.7026236,-87
1737823567.7076235,-90
1737823567.7126236,-97
1737823567.7176237,-92
1737823567.7226236,-76
1737823567.7279775,-54
1737823567.7329776,-35
1737823567.7379775,-27
1737823567.7429776,-39
1737823567.7479775,-54
1737823567.7529776,-73
1737823567.7579775,-92
1737823567.7629776,-115
1737823567.7679777,-136
1737823567.7729776,-150
1737823567.7779777,-153
1737823567.7829776,-155
1737823567.7879777,-147
1737823567.7929776,-136
1737823567.7979777,-124
1737823567.8029776,-131
1737823567.8083315,-142
1737823567.8133314,-146
1737823567.8183315,-130
1737823567.8233314,-106
1737823567.8283315,-89
1737823567.8333313,-75
1737823567.8383315,-76
1737823567.8433313,-98
1737823567.8483315,-130
1737823567.8533313,-132
1737823567.8583314,-76
1737823567.8633313,73
1737823567.8683314,386
1737823567.8733313,831
1737823567.8783314,1076
1737823567.8833313,745
1737823567.8886855,-93
1737823567.8936853,-879
1737823567.8986855,-1110
1737823567.9036853,-846
1737823567.9086854,-508
1737823567.9136853,-356
1737823567.9186854,-317
1737823567.9236853,-269
1737823567.9286854,-209
1737823567.9336853,-161
1737823567.9386854,-129
1737823567.9436853,-114
1737823567.9486854,-115
1737823567.9536853,-116
1737823567.9586854,-103
1737823567.9636855,-80
1737823567.9690392,-65
1737823567.9740393,-68
1737823567.9790392,-82
1737823567.9840393,-86
1737823567.9890392,-90
1737823567.9940393,-87
1737823567.9990392,-84
1737823568.0040393,-76
1737823568.0090392,-73
1737823568.0140393,-72
1737823568.0190392,-82
1737823568.0240393,-87
1737823568.0290391,-85
1737823568.0340393,-78
1737823568.0390391,-80
1737823568.0440392,-76
1737823568.0493932,-66
1737823568.0543933,-44
1737823568.0593932,-29
1737823568.0643933,-24
1737823568.0693932,-32
1737823568.0743933,-30
1737823568.0793931,-18
1737823568.0843933,3
1737823568.0893931,7
1737823568.0943933,3
1737823568.0993931,-13
1737823568.1043932,-33
1737823568.1093931,-60
1737823568.1143932,-74
1737823568.119393,-75
1737823568.1243932,-63
1737823568.1297472,-57
1737823568.1347473,-66
1737823568.1397471,-92
1737823568.1447473,-118
1737823568.1497471,-134
1737823568.1547472,-139
1737823568.1597471,-145
1737823568.1647472,-151
1737823568.169747,-156
1737823568.1747472,-154
1737823568.179747,-145
1737823568.1847472,-138
1737823568.189747,-131
1737823568.1947472,-122
1737823568.199747,-109
1737823568.2047472,-98
1737823568.2101011,-90
1737823568.2151012,-82
1737823568.220101,-78
1737823568.2251012,-74
1737823568.230101,-79
1737823568.2351012,-80
1737823568.240101,-76
1737823568.2451012,-69
1737823568.250101,-66
1737823568.2551012,-73
1737823568.2601013,-80
1737823568.2651012,-84
1737823568.2701013,-85
1737823568.2751012,-85
1737823568.2801013,-83
1737823568.2851012,-83
1737823568.290455,-88
1737823568.2954552,-99
1737823568.300455,-99
1737823568.3054552,-95
1737823568.310455,-83
1737823568.3154552,-84
1737823568.3204553,-97
1737823568.3254552,-111
1737823568.3304553,-116
1737823568.3354552,-107
1737823568.3404553,-85
1737823568.3454552,-61
1737823568.3504553,-50
1737823568.3554552,-52
1737823568.3604553,-46
1737823568.3654552,-32
1737823568.3708093,-13
1737823568.3758092,-8
1737823568.3808093,-22
1737823568.3858092,-45
1737823568.3908093,-67
1737823568.3958092,-90
1737823568.4008093,-119
1737823568.4058092,-143
1737823568.4108093,-158
1737823568.4158092,-162
1737823568.4208093,-157
1737823568.4258091,-148
1737823568.4308093,-143
1737823568.4358091,-132
1737823568.4408092,-125
1737823568.4458091,-113
1737823568.451163,-106
1737823568.456163,-96
1737823568.461163,-97
1737823568.466163,-101
1737823568.471163,-100
1737823568.476163,-100
1737823568.481163,-104
1737823568.486163,-104
1737823568.491163,-84
1737823568.496163,-8
1737823568.501163,217
1737823568.506163,644
1737823568.511163,1048
1737823568.516163,994
1737823568.521163,329
1737823568.526163,-551
1737823568.531517,-1055
1737823568.536517,-1007
1737823568.541517,-702
1737823568.546517,-477
1737823568.551517,-379
1737823568.556517,-315
1737823568.561517,-247
1737823568.566517,-203
1737823568.571517,-174
1737823568.576517,-147
1737823568.581517,-117
1737823568.586517,-104
1737823568.591517,-95
1737823568.596517,-89
1737823568.601517,-82
1737823568.606517,-77
1737823568.6118708,-76
1737823568.6168709,-86
1737823568.6218708,-89
1737823568.6268709,-90
1737823568.6318707,-87
1737823568.6368709,-85
1737823568.6418707,-86
1737823568.6468709,-93
1737823568.6518707,-98
1737823568.6568708,-101
1737823568.6618707,-96
1737823568.6668708,-89
1737823568.6718707,-79
1737823568.6768708,-70
1737823568.6818707,-69
1737823568.6868708,-74
1737823568.6922247,-73
1737823568.6972249,-60
1737823568.7022247,-40
1737823568.7072248,-26
1737823568.7122247,-14
1737823568.7172248,-7
1737823568.7222247,-4
1737823568.7272248,-13
1737823568.7322247,-28
1737823568.7372248,-43
1737823568.7422247,-54
1737823568.7472248,-61
1737823568.7522247,-61
1737823568.7572248,-66
1737823568.762225,-90
1737823568.7672248,-118
1737823568.7725787,-135
1737823568.7775788,-132
1737823568.7825787,-119
1737823568.7875788,-123
1737823568.7925787,-136
1737823568.7975788,-147
1737823568.8025787,-153
1737823568.8075788,-158
1737823568.812579,-162
1737823568.8175788,-161
1737823568.822579,-154
1737823568.8275788,-141
1737823568.832579,-116
1737823568.8375788,-94
1737823568.842579,-82
1737823568.8475788,-88
1737823568.8529327,-100
1737823568.8579328,-102
1737823568.8629327,-85
1737823568.8679328,-69
1737823568.872933,-64
1737823568.8779328,-75
1737823568.882933,-86
1737823568.8879328,-92
1737823568.892933,-89
1737823568.8979328,-90
1737823568.902933,-86
1737823568.9079328,-88
1737823568.9129329,-96
1737823568.9179327,-107
1737823568.9229329,-110
1737823568.9279327,-106
1737823568.933287,-100
1737823568.9382868,-103
1737823568.943287,-114
1737823568.9482868,-126
1737823568.953287,-124
1737823568.9582868,-111
1737823568.9632869,-105
1737823568.9682868,-112
1737823568.9732869,-120
1737823568.9782867,-113
1737823568.9832869,-98
1737823568.9882867,-85
1737823568.9932868,-70
1737823568.9982867,-52
1737823569.0032868,-27
1737823569.0082867,-29
1737823569.0136406,-65
1737823569.0186405,-104
1737823569.0236406,-114
1737823569.0286405,-108
1737823569.0336406,-114
1737823569.0386405,-149
1737823569.0436406,-188
1737823569.0486405,-204
1737823569.0536406,-188
1737823569.0586407,-168
1737823569.0636406,-163
1737823569.0686407,-159
1737823569.0736406,-134
1737823569.0786407,-105
1737823569.0836406,-103
1737823569.0886407,-131
1737823569.0939946,-160
1737823569.0989945,-153
1737823569.1039946,-115
1737823569.1089945,-83
1737823569.1139946,-88
1737823569.1189947,-104
1737823569.1239946,-105
1737823569.1289947,-66
1737823569.1339946,98
1737823569.1389947,491
1737823569.1439946,980
1737823569.1489947,1115
1737823569.1539946,584
1737823569.1589947,-359
1737823569.1639946,-1055
1737823569.1689947,-1140
1737823569.1743484,-821
1737823569.1793485,-522
1737823569.1843483,-403
1737823569.1893485,-359
1737823569.1943483,-292
1737823569.1993484,-225
1737823569.2043483,-175
1737823569.2093484,-160
1737823569.2143483,-158
1737823569.2193484,-147
1737823569.2243483,-121
1737823569.2293484,-100
1737823569.2343483,-99
1737823569.2393484,-103
1737823569.2443483,-107
1737823569.2493484,-105
1737823569.2547023,-110
1737823569.2597024,-114
1737823569.2647023,-108
1737823569.2697024,-96
1737823569.2747023,-87
1737823569.2797024,-87
1737823569.2847023,-98
1737823569.2897024,-109
1737823569.2947023,-116
1737823569.2997024,-103
1737823569.3047023,-87
1737823569.3097024,-72
1737823569.3147025,-72
1737823569.3197024,-78
1737823569.3247025,-81
1737823569.3297024,-69
1737823569.3350563,-52
1737823569.3400564,-30
1737823569.3450563,-23
1737823569.3500564,-26
1737823569.3550563,-35
1737823569.3600564,-38
1737823569.3650565,-37
1737823569.3700564,-40
1737823569.3750565,-48
1737823569.3800564,-62
1737823569.3850565,-72
1737823569.3900564,-77
1737823569.3950565,-86
1737823569.4000564,-95
1737823569.4050565,-114
1737823569.4100564,-139
1737823569.4154105,-164
1737823569.4204104,-175
1737823569.4254105,-171
1737823569.4304104,-168
1737823569.4354105,-163
1737823569.4404104,-166
1737823569.4454105,-174
1737823569.4504104,-188
1737823569.4554105,-191
1737823569.4604104,-176
1737823569.4654105,-148
1737823569.4704103,-122
1737823569.4754105,-109
1737823569.4804103,-103
1737823569.4854105,-106
1737823569.4904103,-110
1737823569.4957645,-100
1737823569.5007644,-91
1737823569.5057645,-89
1737823569.5107644,-101
1737823569.5157645,-112
1737823569.5207644,-104
1737823569.5257645,-92
1737823569.5307643,-88
1737823569.5357645,-102
1737823569.5407643,-115
1737823569.5457644,-123
1737823569.5507643,-123
1737823569.5557644,-118
1737823569.5607643,-121
1737823569.5657644,-123
1737823569.5707643,-129
1737823569.5761182,-132
1737823569.581118,-133
1737823569.5861182,-129
1737823569.591118,-131
1737823569.5961182,-124
1737823569.601118,-106
1737823569.6061182,-86
1737823569.6111183,-80
1737823569.6161182,-83
1737823569.6211183,-84
1737823569.6261182,-66
1737823569.6311183,-44
1737823569.6361182,-30
1737823569.6411183,-39
1737823569.6461182,-61
1737823569.6511183,-83
1737823569.6564722,-110
1737823569.661472,-141
1737823569.6664722,-171
1737823569.6714723,-190
1737823569.6764722,-185
1737823569.6814723,-168
1737823569.6864722,-147
1737823569.6914723,-135
1737823569.6964722,-133
1737823569.7014723,-134
1737823569.7064722,-125
1737823569.7114723,-110
1737823569.7164721,-99
1737823569.7214723,-97
1737823569.7264721,-105
1737823569.7314723,-104
1737823569.736826,-104
1737823569.741826,-111
1737823569.746826,-109
1737823569.751826,-82
1737823569.756826,5
1737823569.761826,252
1737823569.766826,710
1737823569.771826,1127
1737823569.776826,1044
1737823569.781826,324
1737823569.786826,-597
1737823569.791826,-1111
1737823569.796826,-1049
1737823569.801826,-729
1737823569.806826,-497
1737823569.811826,-388
1737823569.81718,-312
1737823569.82218,-248
1737823569.82718,-209
1737823569.83218,-178
1737823569.83718,-144
1737823569.84218,-120
1737823569.84718,-108
1737823569.85218,-104
1737823569.85718,-96
1737823569.86218,-85
1737823569.86718,-75
1737823569.87218,-72
1737823569.87718,-69
1737823569.88218,-68
1737823569.88718,-66
1737823569.89218,-69
1737823569.897534,-82
1737823569.902534,-97
1737823569.907534,-93
1737823569.912534,-74
1737823569.917534,-62
1737823569.922534,-62
1737823569.927534,-60
1737823569.932534,-60
1737823569.937534,-61
1737823569.942534,-68
1737823569.947534,-59
1737823569.952534,-42
1737823569.957534,-31
1737823569.962534,-19
1737823569.967534,5
1737823569.972534,26
1737823569.977888,21
1737823569.982888,-6
1737823569.987888,-28
1737823569.992888,-32
1737823569.997888,-30
1737823570.002888,-43
1737823570.007888,-60
1737823570.012888,-65
1737823570.017888,-69
1737823570.022888,-73
1737823570.027888,-78
1737823570.032888,-87
1737823570.037888,-96
1737823570.042888,-109
1737823570.047888,-118
1737823570.052888,-131
1737823570.058242,-148
1737823570.063242,-167
1737823570.068242,-173
1737823570.073242,-156
1737823570.078242,-134
1737823570.083242,-123
1737823570.088242,-128
1737823570.093242,-130
1737823570.098242,-115
1737823570.103242,-98
1737823570.108242,-85
1737823570.113242,-77
1737823570.118242,-75
1737823570.123242,-78
1737823570.128242,-79
1737823570.133242,-71
1737823570.138596,-58
1737823570.143596,-58
1737823570.148596,-75
1737823570.153596,-95
1737823570.158596,-94
1737823570.163596,-75
1737823570.168596,-62
1737823570.173596,-66
1737823570.178596,-87
1737823570.183596,-107
1737823570.188596,-106
1737823570.193596,-103
1737823570.198596,-103
1737823570.203596,-106
1737823570.208596,-94
1737823570.213596,-84
1737823570.2189498,-83
1737823570.22395,-91
1737823570.2289498,-91
1737823570.23395,-91
1737823570.2389498,-87
1737823570.24395,-74
1737823570.2489498,-41
1737823570.2539499,-12
1737823570.2589498,-12
1737823570.2639499,-37
1737823570.2689497,-57
1737823570.2739499,-77
1737823570.2789497,-103
1737823570.2839499,-143
1737823570.2889497,-162
1737823570.2939498,-158
1737823570.2993035,-142
1737823570.3043036,-135
1737823570.3093035,-138
1737823570.3143036,-148
1737823570.3193035,-145
1737823570.3243036,-125
1737823570.3293035,-107
1737823570.3343036,-90
1737823570.3393035,-81
1737823570.3443036,-81
1737823570.3493035,-85
1737823570.3543036,-80
1737823570.3593037,-68
1737823570.3643036,-76
1737823570.3693037,-97
1737823570.3743036,-89
1737823570.3796575,14
1737823570.3846576,314
1737823570.3896575,801
1737823570.3946576,1188
1737823570.3996575,1034
1737823570.4046576,265
1737823570.4096577,-654
1737823570.4146576,-1126
1737823570.4196577,-1038
1737823570.4246576,-730
1737823570.4296577,-518
1737823570.4346576,-409
1737823570.4396577,-311
1737823570.4446576,-223
1737823570.4496577,-173
1737823570.4546576,-155
1737823570.4600115,-150
1737823570.4650116,-122
1737823570.4700117,-89
1737823570.4750116,-72
1737823570.4800117,-82
1737823570.4850116,-87
1737823570.4900117,-61
1737823570.4950116,-40
1737823570.5000117,-60
1737823570.5050116,-97
1737823570.5100117,-99
1737823570.5150115,-50
1737823570.5200117,-21
1737823570.5250115,-44
1737823570.5300117,-93
1737823570.5350115,-102
1737823570.5403657,-59
1737823570.5453656,-29
1737823570.5503657,-57
1737823570.5553656,-99
1737823570.5603657,-86
1737823570.5653656,-16
1737823570.5703657,38
1737823570.5753655,19
1737823570.5803657,-40
1737823570.5853655,-56
1737823570.5903656,-14
1737823570.5953655,34
1737823570.6003656,48
1737823570.6053655,29
1737823570.6103656,4
1737823570.6153655,-13
1737823570.6207197,-11
1737823570.6257195,-9
1737823570.6307197,-13
1737823570.6357195,-50
1737823570.6407197,-92
1737823570.6457195,-105
1737823570.6507196,-97
1737823570.6557195,-111
1737823570.6607196,-135
1737823570.6657195,-135
1737823570.6707196,-104
1737823570.6757195,-88
1737823570.6807196,-129
1737823570.6857195,-186
1737823570.6907196,-205
1737823570.6957197,-193
1737823570.7010736,-165
1737823570.7060735,-134
1737823570.7110736,-113
1737823570.7160735,-115
1737823570.7210736,-119
1737823570.7260735,-96
1737823570.7310736,-67
1737823570.7360735,-59
1737823570.7410736,-79
1737823570.7460735,-91
1737823570.7510736,-76
1737823570.7560737,-58
1737823570.7610736,-68
1737823570.7660737,-79
1737823570.7710736,-84
1737823570.7760737,-73
1737823570.7814274,-60
1737823570.7864275,-61
1737823570.7914274,-87
1737823570.7964275,-114
1737823570.8014274,-130
1737823570.8064275,-128
1737823570.8114274,-126
1737823570.8164275,-118
1737823570.8214273,-105
1737823570.8264275,-99
1737823570.8314273,-103
1737823570.8364275,-104
1737823570.8414273,-89
1737823570.8464274,-77
1737823570.8514273,-78
1737823570.8564274,-93
1737823570.8617814,-93
1737823570.8667815,-68
1737823570.8717813,-48
1737823570.8767815,-46
1737823570.8817813,-53
1737823570.8867815,-62
1737823570.8917813,-75
1737823570.8967814,-103
1737823570.9017813,-145
1737823570.9067814,-174
1737823570.9117813,-183
1737823570.9167814,-180
1737823570.9217813,-175
1737823570.9267814,-169
1737823570.9317813,-164
1737823570.9367814,-160
1737823570.942135,-160
1737823570.9471352,-160
1737823570.952135,-151
1737823570.9571352,-143
1737823570.9621353,-132
1737823570.9671352,-113
1737823570.9721353,-91
1737823570.9771352,-84
1737823570.9821353,-92
1737823570.9871352,-89
1737823570.9921353,-33
1737823570.9971352,137
1737823571.0021353,539
1737823571.0071352,1109
1737823571.0121353,1420
1737823571.0171351,1009
1737823571.0224893,-16
1737823571.0274892,-979
1737823571.0324893,-1313
1737823571.0374892,-1080
1737823571.0424893,-734
1737823571.0474892,-540
1737823571.0524893,-439
1737823571.0574892,-353
1737823571.0624893,-289
1737823571.0674891,-244
1737823571.0724893,-197
1737823571.0774891,-146
1737823571.0824893,-107
1737823571.0874891,-86
1737823571.0924892,-74
1737823571.097489,-67
1737823571.1028433,-62
1737823571.1078432,-68
1737823571.1128433,-81
1737823571.1178432,-83
1737823571.1228433,-73
1737823571.1278431,-59
1737823571.1328433,-55
1737823571.1378431,-63
1737823571.1428432,-72
1737823571.1478431,-71
1737823571.1528432,-55
1737823571.157843,-40
1737823571.1628432,-40
1737823571.167843,-47
1737823571.1728432,-52
1737823571.177843,-45
1737823571.1831973,-31
1737823571.1881971,-24
1737823571.1931973,-21
1737823571.1981971,-18
1737823571.2031972,-9
1737823571.208197,1
1737823571.2131972,6
1737823571.218197,9
1737823571.2231972,4
1737823571.228197,-13
1737823571.2331972,-32
1737823571.238197,-53
1737823571.2431972,-65
1737823571.2481973,-71
1737823571.2531972,-78
1737823571.2581973,-91
1737823571.2635512,-108
1737823571.268551,-123
1737823571.2735512,-127
1737823571.278551,-132
1737823571.2835512,-146
1737823571.288551,-168
1737823571.2935512,-187
1737823571.298551,-187
1737823571.3035512,-177
1737823571.3085513,-167
1737823571.3135512,-166
1737823571.3185513,-166
1737823571.3235512,-159
1737823571.3285513,-144
1737823571.3335512,-125
1737823571.3385513,-113
1737823571.343905,-107
1737823571.348905,-106
1737823571.353905,-97
1737823571.358905,-81
1737823571.363905,-67
1737823571.368905,-65
1737823571.373905,-73
1737823571.378905,-81
1737823571.383905,-89
1737823571.388905,-91
1737823571.393905,-93
1737823571.398905,-95
1737823571.403905,-91
1737823571.408905,-85
1737823571.413905,-80
1737823571.418905,-81
1737823571.424259,-84
1737823571.429259,-89
1737823571.434259,-93
1737823571.439259,-95
1737823571.444259,-89
1737823571.449259,-81
1737823571.454259,-67
1737823571.459259,-61
1737823571.464259,-56
1737823571.469259,-38
1737823571.474259,-13
1737823571.479259,3
1737823571.484259,1
1737823571.489259,-12
1737823571.494259,-30
1737823571.499259,-62
1737823571.5046127,-101
1737823571.5096128,-141
1737823571.514613,-167
1737823571.5196128,-171
1737823571.524613,-159
1737823571.5296128,-141
1737823571.534613,-132
1737823571.5396128,-129
1737823571.544613,-134
1737823571.5496128,-132
1737823571.5546129,-126
1737823571.5596128,-111
1737823571.5646129,-100
1737823571.5696127,-89
1737823571.5746129,-89
1737823571.5796127,-101
1737823571.584967,-122
1737823571.5899668,-128
1737823571.594967,-86
1737823571.5999668,41
1737823571.6049669,372
1737823571.6099668,962
1737823571.6149669,1506
1737823571.6199667,1449
1737823571.6249669,590
1737823571.6299667,-576
1737823571.6349669,-1305
1737823571.6399667,-1330
1737823571.6449668,-991
1737823571.6499667,-711
1737823571.6549668,-574
1737823571.6599667,-474
1737823571.6653209,-367
1737823571.6703207,-274
1737823571.6753209,-207
1737823571.6803207,-168
1737823571.6853209,-147
1737823571.6903207,-118
1737823571.6953208,-83
1737823571.7003207,-61
1737823571.7053208,-59
1737823571.7103207,-66
1737823571.7153208,-71
1737823571.7203207,-71
1737823571.7253208,-73
1737823571.7303207,-70
1737823571.7353208,-59
1737823571.7403207,-40
1737823571.7456748,-32
1737823571.7506747,-39
1737823571.7556748,-60
1737823571.7606747,-73
1737823571.7656748,-68
1737823571.7706747,-53
1737823571.7756748,-55
1737823571.7806747,-59
1737823571.7856748,-66
1737823571.7906747,-59
1737823571.7956748,-49
1737823571.800675,-36
1737823571.8056748,-23
1737823571.810675,-14
1737823571.8156748,-8
1737823571.820675,-6
1737823571.8260288,-8
1737823571.8310287,-13
1737823571.8360288,-26
1737823571.8410287,-38
1737823571.8460288,-54
1737823571.8510287,-60
1737823571.8560288,-66
1737823571.861029,-75
1737823571.8660288,-87
1737823571.871029,-105
1737823571.8760288,-117
1737823571.881029,-131
1737823571.8860288,-140
1737823571.891029,-143
1737823571.8960288,-141
1737823571.9010289,-138
1737823571.9063826,-150
1737823571.9113827,-163
1737823571.9163826,-163
1737823571.9213827,-147
1737823571.9263825,-128
1737823571.9313827,-118
1737823571.9363825,-109
1737823571.9413826,-100
1737823571.9463825,-91
1737823571.9513826,-88
1737823571.9563825,-87
1737823571.9613826,-86
1737823571.9663825,-90
1737823571.9713826,-101
1737823571.9763825,-106
1737823571.9813826,-102
1737823571.9867365,-89
1737823571.9917367,-88
1737823571.9967365,-97
1737823572.0017366,-107
1737823572.0067365,-106
1737823572.0117366,-96
1737823572.0167365,-92
1737823572.0217366,-104
1737823572.0267365,-124
1737823572.0317366,-128
1737823572.0367365,-115
1737823572.0417366,-101
1737823572.0467367,-90
1737823572.0517366,-89
1737823572.0567367,-85
1737823572.0617366,-81
1737823572.0670905,-77
1737823572.0720904,-76
1737823572.0770905,-73
1737823572.0820904,-56
1737823572.0870905,-31
1737823572.0920904,-10
1737823572.0970905,-8
1737823572.1020904,-30
1737823572.1070905,-66
1737823572.1120903,-107
1737823572.1170905,-145
1737823572.1220903,-168
1737823572.1270905,-174
1737823572.1320903,-164
1737823572.1370904,-147
1737823572.1420903,-135
1737823572.1474445,-127
1737823572.1524444,-119
1737823572.1574445,-108
1737823572.1624444,-96
1737823572.1674445,-98
1737823572.1724443,-114
1737823572.1774445,-122
1737823572.1824443,-108
1737823572.1874444,-100
1737823572.1924443,-108
1737823572.1974444,-112
1737823572.2024443,-73
1737823572.2074444,55
1737823572.2124443,394
1737823572.2174444,966
1737823572.2224443,1452
1737823572.2277985,1320
1737823572.2327983,440
1737823572.2377985,-648
1737823572.2427983,-1261
1737823572.2477984,-1238
1737823572.2527983,-932
1737823572.2577984,-692
1737823572.2627983,-553
1737823572.2677984,-433
1737823572.2727983,-337
1737823572.2777984,-280
1737823572.2827983,-234
1737823572.2877984,-186
1737823572.2927985,-148
1737823572.2977984,-128
1737823572.3027985,-118
1737823572.3081524,-102
1737823572.3131523,-86
1737823572.3181524,-83
1737823572.3231523,-95
1737823572.3281524,-108
1737823572.3331523,-110
1737823572.3381524,-99
1737823572.3431523,-91
1737823572.3481524,-87
1737823572.3531525,-94
1737823572.3581524,-98
1737823572.3631525,-92
1737823572.3681524,-81
1737823572.3731525,-71
1737823572.3781524,-65
1737823572.3831525,-61
1737823572.3885064,-55
1737823572.3935063,-49
1737823572.3985064,-45
1737823572.4035065,-34
1737823572.4085064,-24
1737823572.4135065,-21
1737823572.4185064,-24
1737823572.4235065,-21
1737823572.4285064,-11
1737823572.4335065,-3
1737823572.4385064,-7
1737823572.4435065,-18
1737823572.4485064,-36
1737823572.4535065,-50
1737823572.4585063,-58
1737823572.4635065,-61
1737823572.4688604,-66
1737823572.4738605,-75
1737823572.4788604,-87
1737823572.4838605,-93
1737823572.4888604,-100
1737823572.4938605,-113
1737823572.4988604,-130
1737823572.5038605,-148
1737823572.5088603,-164
1737823572.5138605,-167
1737823572.5188603,-154
1737823572.5238605,-132
1737823572.5288603,-115
1737823572.5338604,-117
1737823572.5388603,-124
1737823572.5438604,-123
1737823572.5492141,-107
1737823572.5542142,-90
1737823572.559214,-82
1737823572.5642142,-77
1737823572.569214,-76
1737823572.5742142,-79
1737823572.579214,-89
1737823572.5842142,-94
1737823572.589214,-94
1737823572.5942142,-96
1737823572.5992143,-95
1737823572.6042142,-95
1737823572.6092143,-85
1737823572.6142142,-78
1737823572.6192143,-87
1737823572.6242142,-106
1737823572.629568,-125
1737823572.6345682,-130
1737823572.639568,-129
1737823572.6445682,-125
1737823572.649568,-127
1737823572.6545682,-132
1737823572.6595683,-125
1737823572.6645682,-114
1737823572.6695683,-102
1737823572.6745682,-99
1737823572.6795683,-92
1737823572.6845682,-76
1737823572.6895683,-49
1737823572.6945682,-29
1737823572.6995683,-25
1737823572.7045681,-35
1737823572.709922,-44
1737823572.714922,-58
1737823572.719922,-78
1737823572.724922,-118
1737823572.729922,-159
1737823572.734922,-185
1737823572.739922,-183
1737823572.744922,-170
1737823572.749922,-154
1737823572.754922,-140
1737823572.759922,-131
1737823572.764922,-129
1737823572.769922,-130
1737823572.774922,-127
1737823572.779922,-115
1737823572.784922,-107
1737823572.790276,-101
1737823572.795276,-91
1737823572.800276,-86
1737823572.805276,-101
1737823572.810276,-112
1737823572.815276,-99
1737823572.820276,-13
1737823572.825276,239
1737823572.830276,735
1737823572.835276,1222
1737823572.840276,1219
1737823572.845276,519
1737823572.850276,-470
1737823572.855276,-1094
1737823572.860276,-1112
1737823572.865276,-824
1737823572.87063,-586
1737823572.87563,-466
1737823572.88063,-372
1737823572.88563,-290
1737823572.89063,-235
1737823572.89563,-198
1737823572.90063,-161
1737823572.90563,-131
1737823572.91063,-108
1737823572.91563,-94
1737823572.92063,-84
1737823572.92563,-86
1737823572.93063,-95
1737823572.93563,-95
1737823572.94063,-85
1737823572.94563,-69
1737823572.950984,-55
1737823572.955984,-48
1737823572.960984,-57
1737823572.965984,-73
1737823572.970984,-83
1737823572.975984,-81
1737823572.980984,-78
1737823572.985984,-71
1737823572.990984,-68
1737823572.995984,-65
1737823573.000984,-61
1737823573.005984,-55
1737823573.010984,-40
1737823573.015984,-24
1737823573.020984,-15
1737823573.025984,-15
1737823573.031338,-16
1737823573.036338,-8
1737823573.041338,-9
1737823573.046338,-8
1737823573.051338,-6
1737823573.056338,-7
1737823573.061338,-18
1737823573.066338,-37
1737823573.071338,-53
1737823573.076338,-54
1737823573.081338,-52
1737823573.086338,-53
1737823573.091338,-71
1737823573.096338,-91
1737823573.101338,-109
1737823573.106338,-119
1737823573.1116917,-125
1737823573.1166918,-139
1737823573.1216917,-148
1737823573.1266918,-154
1737823573.1316917,-147
1737823573.1366918,-133
1737823573.1416917,-123
1737823573.1466918,-114
1737823573.151692,-108
1737823573.1566918,-98
1737823573.161692,-92
1737823573.1666918,-89
1737823573.171692,-85
1737823573.1766918,-78
1737823573.181692,-78
1737823573.1866918,-77
1737823573.1920457,-79
1737823573.1970458,-80
1737823573.202046,-79
1737823573.2070458,-82
1737823573.212046,-93
1737823573.2170458,-99
1737823573.222046,-100
1737823573.2270458,-97
1737823573.232046,-99
1737823573.2370458,-106
1737823573.2420459,-111
1737823573.2470458,-113
1737823573.2520459,-111
1737823573.2570457,-109
1737823573.2620459,-99
1737823573.2670457,-93
1737823573.2723997,-95
1737823573.2773995,-105
1737823573.2823997,-105
1737823573.2873995,-101
1737823573.2923996,-92
1737823573.2973995,-84
1737823573.3023996,-66
1737823573.3073995,-40
1737823573.3123996,-19
1737823573.3173995,-21
1737823573.3223996,-35
1737823573.3273995,-46
1737823573.3323996,-58
1737823573.3373995,-77
1737823573.3423996,-108
1737823573.3473997,-140
1737823573.3527536,-163
1737823573.3577535,-174
1737823573.3627536,-170
1737823573.3677535,-151
1737823573.3727536,-128
1737823573.3777535,-118
1737823573.3827536,-124
1737823573.3877535,-126
1737823573.3927536,-119
1737823573.3977537,-111
1737823573.4027536,-109
1737823573.4077537,-116
1737823573.4127536,-119
1737823573.4177537,-116
1737823573.4227536,-116
1737823573.4277537,-106
1737823573.4331076,-72
1737823573.4381075,80
1737823573.4431076,460
1737823573.4481075,955
1737823573.4531076,1152
1737823573.4581077,700
1737823573.4631076,-208
1737823573.4681077,-957
1737823573.4731076,-1127
1737823573.4781077,-861
1737823573.4831076,-552
1737823573.4881077,-397
1737823573.4931076,-337
1737823573.4981077,-288
1737823573.5031075,-237
1737823573.5081077,-196
1737823573.5134616,-159
1737823573.5184617,-137
1737823573.5234616,-118
1737823573.5284617,-99
1737823573.5334616,-79
1737823573.5384617,-74
1737823573.5434616,-77
1737823573.5484617,-82
1737823573.5534616,-81
1737823573.5584617,-82
1737823573.5634615,-77
1737823573.5684617,-80
1737823573.5734615,-85
1737823573.5784616,-90
1737823573.5834615,-90
1737823573.5884616,-84
1737823573.5938156,-80
1737823573.5988157,-81
1737823573.6038156,-79
1737823573.6088157,-65
1737823573.6138155,-56
1737823573.6188157,-61
1737823573.6238155,-77
1737823573.6288157,-79
1737823573.6338155,-64
1737823573.6388156,-39
1737823573.6438155,-24
1737823573.6488156,-17
1737823573.6538155,-16
1737823573.6588156,-19
1737823573.6638155,-16
1737823573.6688156,-21
1737823573.6741693,-31
1737823573.6791694,-42
1737823573.6841693,-45
1737823573.6891694,-40
1737823573.6941693,-34
1737823573.6991694,-36
1737823573.7041695,-42
1737823573.7091694,-53
1737823573.7141695,-65
1737823573.7191694,-83
1737823573.7241695,-106
1737823573.7291694,-134
1737823573.7341695,-161
1737823573.7391694,-168
1737823573.7441695,-159
1737823573.7491693,-143
1737823573.7545235,-131
1737823573.7595234,-120
1737823573.7645235,-112
1737823573.7695234,-107
1737823573.7745235,-104
1737823573.7795234,-95
1737823573.7845235,-87
1737823573.7895234,-82
1737823573.7945235,-85
1737823573.7995234,-93
1737823573.8045235,-91
1737823573.8095233,-85
1737823573.8145235,-87
1737823573.8195233,-98
1737823573.8245234,-106
1737823573.8295233,-106
1737823573.8348773,-105
1737823573.8398771,-108
1737823573.8448772,-111
1737823573.849877,-110
1737823573.8548772,-107
1737823573.859877,-111
1737823573.8648772,-115
1737823573.869877,-113
1737823573.8748772,-112
1737823573.879877,-110
1737823573.8848772,-111
1737823573.889877,-106
1737823573.8948772,-99
1737823573.8998773,-78
1737823573.9048772,-54
1737823573.9098773,-38
1737823573.9152312,-41
1737823573.920231,-49
1737823573.9252312,-54
1737823573.930231,-49
1737823573.9352312,-45
1737823573.940231,-51
1737823573.9452312,-78
1737823573.9502313,-120
1737823573.9552312,-155
1737823573.9602313,-173
1737823573.9652312,-171
1737823573.9702313,-168
1737823573.9752312,-161
1737823573.9802313,-155
1737823573.9852312,-144
1737823573.9902313,-136
1737823573.9955852,-126
1737823574.0005853,-116
1737823574.0055852,-110
1737823574.0105853,-115
1737823574.0155852,-121
1737823574.0205853,-111
1737823574.0255852,-96
1737823574.0305853,-93
1737823574.0355852,-109
1737823574.0405853,-111
1737823574.0455852,-44
1737823574.0505853,204
1737823574.0555851,658
1737823574.0605853,1069
1737823574.0655851,997
1737823574.0705853,313
1737823574.0759392,-564
1737823574.0809393,-1047
1737823574.0859392,-986
1737823574.0909393,-677
1737823574.0959392,-454
1737823574.1009393,-360
1737823574.1059391,-298
1737823574.1109393,-238
1737823574.1159391,-190
1737823574.1209393,-167
1737823574.1259391,-167
1737823574.1309392,-157
1737823574.1359391,-118
1737823574.1409392,-76
1737823574.145939,-74
1737823574.1509392,-97
1737823574.1562932,-103
1737823574.1612933,-76
1737823574.1662931,-49
1737823574.1712933,-62
1737823574.1762931,-92
1737823574.1812932,-113
1737823574.1862931,-111
1737823574.1912932,-97
1737823574.196293,-84
1737823574.2012932,-79
1737823574.206293,-78
1737823574.2112932,-82
1737823574.216293,-84
1737823574.2212932,-84
1737823574.226293,-74
1737823574.2312932,-68
1737823574.2366471,-77
1737823574.2416472,-86
1737823574.2466471,-81
1737823574.2516472,-55
1737823574.256647,-28
1737823574.2616472,-17
1737823574.266647,-23
1737823574.2716472,-33
1737823574.276647,-39
1737823574.2816472,-42
1737823574.286647,-37
1737823574.2916472,-30
1737823574.2966473,-34
1737823574.3016472,-45
1737823574.3066473,-61
1737823574.3116472,-72
1737823574.317001,-82
1737823574.322001,-89
1737823574.327001,-88
1737823574.332001,-91
1737823574.337001,-112
1737823574.342001,-143
1737823574.347001,-167
1737823574.352001,-168
1737823574.357001,-143
1737823574.362001,-131
1737823574.367001,-136
1737823574.372001,-145
1737823574.377001,-132
1737823574.382001,-101
1737823574.387001,-83
1737823574.392001,-91
1737823574.3973548,-102
1737823574.4023547,-101
1737823574.4073548,-94
1737823574.4123547,-96
1737823574.4173548,-99
1737823574.4223547,-98
1737823574.4273548,-91
1737823574.4323547,-95
1737823574.4373548,-105
1737823574.442355,-114
1737823574.4473548,-117
1737823574.452355,-119
1737823574.4573548,-119
1737823574.462355,-122
1737823574.4673548,-123
1737823574.472355,-124
1737823574.4777088,-123
1737823574.4827087,-114
1737823574.4877088,-99
1737823574.4927087,-85
1737823574.4977088,-81
1737823574.502709,-85
1737823574.5077088,-78
1737823574.512709,-59
1737823574.5177088,-36
1737823574.522709,-32
1737823574.5277088,-36
1737823574.532709,-36
1737823574.5377088,-46
1737823574.5427089,-77
1737823574.5477087,-121
1737823574.5527089,-159
1737823574.5580628,-165
1737823574.563063,-158
1737823574.5680628,-155
1737823574.573063,-150
1737823574.5780628,-138
1737823574.583063,-126
1737823574.5880628,-119
1737823574.5930629,-120
1737823574.5980628,-120
1737823574.6030629,-111
1737823574.6080627,-106
1737823574.6130629,-106
1737823574.6180627,-102
1737823574.6230628,-106
1737823574.6280627,-123
1737823574.6330628,-130
1737823574.6384168,-108
1737823574.643417,-40
1737823574.6484168,172
1737823574.6534169,591
1737823574.6584167,1007
1737823574.6634169,996
1737823574.6684167,365
1737823574.6734169,-501
1737823574.6784167,-1014
1737823574.6834168,-969
1737823574.6884167,-657
1737823574.6934168,-424
1737823574.6984167,-340
1737823574.7034168,-302
1737823574.7084167,-263
1737823574.7134168,-215
1737823574.7187707,-164
1737823574.7237709,-114
1737823574.7287707,-87
1737823574.7337708,-86
1737823574.7387707,-86
1737823574.7437708,-82
1737823574.7487707,-62
1737823574.7537708,-53
1737823574.7587707,-60
1737823574.7637708,-73
1737823574.7687707,-69
1737823574.7737708,-57
1737823574.7787707,-49
1737823574.7837708,-62
1737823574.788771,-79
1737823574.7937708,-89
1737823574.7991247,-87
1737823574.8041248,-82
1737823574.8091247,-71
1737823574.8141248,-69
1737823574.8191247,-73
1737823574.8241248,-82
1737823574.8291247,-85
1737823574.8341248,-87
1737823574.839125,-90
1737823574.8441248,-82
1737823574.849125,-60
1737823574.8541248,-35
1737823574.859125,-23
1737823574.8641248,-33
1737823574.869125,-42
1737823574.8741248,-39
1737823574.8794787,-37
1737823574.8844786,-41
1737823574.8894787,-59
1737823574.8944786,-68
1737823574.8994787,-59
1737823574.9044785,-39
1737823574.9094787,-42
1737823574.9144785,-82
1737823574.9194787,-121
1737823574.9244785,-128
1737823574.9294786,-107
1737823574.9344785,-92
1737823574.9394786,-119
1737823574.9444785,-165
1737823574.9494786,-207
1737823574.9544785,-217
1737823574.9598327,-190
1737823574.9648325,-155
1737823574.9698327,-123
1737823574.9748325,-107
1737823574.9798326,-95
1737823574.9848325,-89
1737823574.9898326,-94
1737823574.9948325,-113
1737823574.9998326,-130
1737823575.0048325,-134
1737823575.0098326,-134
1737823575.0148325,-140
1737823575.0198326,-141
1737823575.0248325,-135
1737823575.0298326,-117
1737823575.0348327,-109
1737823575.0401864,-112
1737823575.0451863,-120
1737823575.0501864,-127
1737823575.0551865,-136
1737823575.0601864,-143
1737823575.0651865,-136
1737823575.0701864,-124
1737823575.0751865,-111
1737823575.0801864,-98
1737823575.0851865,-86
1737823575.0901864,-76
1737823575.0951865,-65
1737823575.1001863,-52
1737823575.1051865,-38
1737823575.1101863,-25
1737823575.1151865,-18
1737823575.1205404,-16
1737823575.1255405,-23
1737823575.1305404,-49
1737823575.1355405,-92
1737823575.1405404,-133
1737823575.1455405,-155
1737823575.1505404,-155
1737823575.1555405,-140
1737823575.1605403,-126
1737823575.1655405,-117
1737823575.1705403,-116
1737823575.1755404,-120
1737823575.1805403,-123
1737823575.1855404,-116
1737823575.1905403,-102
1737823575.1955404,-90
1737823575.2008944,-89
1737823575.2058945,-91
1737823575.2108943,-87
1737823575.2158945,-91
1737823575.2208943,-104
1737823575.2258945,-116
1737823575.2308943,-103
1737823575.2358944,-1
1737823575.2408943,289
1737823575.2458944,721
1737823575.2508943,970
1737823575.2558944,674
1737823575.2608943,-90
1737823575.2658944,-800
1737823575.2708943,-1012
1737823575.2758944,-775
1737823575.2812483,-461
1737823575.2862484,-298
1737823575.2912483,-268
1737823575.2962484,-256
1737823575.3012483,-228
1737823575.3062484,-184
1737823575.3112483,-144
1737823575.3162484,-123
1737823575.3212483,-122
1737823575.3262484,-129
1737823575.3312483,-133
1737823575.3362484,-128
1737823575.3412485,-115
1737823575.3462484,-96
1737823575.3512485,-88
1737823575.3562484,-93
1737823575.3616023,-106
1737823575.3666024,-117
1737823575.3716023,-131
1737823575.3766024,-140
1737823575.3816023,-138
1737823575.3866024,-124
1737823575.3916025,-109
1737823575.3966024,-97
1737823575.4016025,-101
1737823575.4066024,-104
1737823575.4116025,-103
1737823575.4166024,-93
1737823575.4216025,-83
1737823575.4266024,-70
1737823575.4316025,-57
1737823575.4366024,-40
1737823575.4419563,-27
1737823575.4469562,-20
1737823575.4519563,-18
1737823575.4569561,-18
1737823575.4619563,-9
1737823575.4669561,1
1737823575.4719563,3
1737823575.4769561,-5
1737823575.4819562,-8
1737823575.4869561,-9
1737823575.4919562,-16
1737823575.496956,-26
1737823575.5019562,-43
1737823575.506956,-70
1737823575.5119562,-99
1737823575.516956,-119
1737823575.5223103,-127
1737823575.5273101,-135
1737823575.5323102,-154
1737823575.5373101,-172
1737823575.5423102,-180
1737823575.54731,-175
1737823575.5523102,-167
1737823575.55731,-163
1737823575.5623102,-156
1737823575.56731,-138
1737823575.5723102,-110
1737823575.57731,-79
1737823575.5823102,-72
1737823575.5873103,-91
1737823575.5923102,-121
1737823575.5973103,-128
1737823575.602664,-112
1737823575.607664,-99
1737823575.612664,-101
1737823575.617664,-113
1737823575.622664,-113
1737823575.627664,-98
1737823575.632664,-85
1737823575.637664,-80
1737823575.642664,-85
1737823575.647664,-96
1737823575.652664,-110
1737823575.657664,-111
1737823575.662664,-107
1737823575.667664,-99
1737823575.672664,-93
1737823575.677664,-81
1737823575.683018,-60
1737823575.688018,-41
1737823575.693018,-27
1737823575.698018,-26
1737823575.703018,-32
1737823575.708018,-54
1737823575.713018,-87
1737823575.718018,-127
1737823575.723018,-162
1737823575.728018,-179
1737823575.733018,-173
1737823575.738018,-160
1737823575.743018,-155
1737823575.748018,-154
1737823575.753018,-143
1737823575.758018,-121
1737823575.763372,-111
1737823575.768372,-107
1737823575.773372,-111
1737823575.778372,-115
1737823575.783372,-115
1737823575.788372,-109
1737823575.793372,-108
1737823575.798372,-115
1737823575.803372,-118
1737823575.808372,-110
1737823575.813372,-71
1737823575.818372,76
1737823575.823372,425
1737823575.828372,870
1737823575.833372,1028
1737823575.838372,604
1737823575.843726,-205
1737823575.848726,-845
1737823575.853726,-966
1737823575.858726,-728
1737823575.863726,-480
1737823575.868726,-369
1737823575.873726,-315
1737823575.878726,-264
1737823575.883726,-222
1737823575.888726,-193
1737823575.893726,-169
1737823575.898726,-144
1737823575.903726,-121
1737823575.908726,-109
1737823575.913726,-104
1737823575.918726,-102
1737823575.92408,-97
1737823575.92908,-94
1737823575.93408,-92
1737823575.93908,-88
1737823575.94408,-85
1737823575.94908,-83
1737823575.95408,-86
1737823575.95908,-88
1737823575.96408,-85
1737823575.96908,-76
1737823575.97408,-70
1737823575.97908,-65
1737823575.98408,-65
1737823575.98908,-65
1737823575.99408,-71
1737823575.99908,-69
1737823576.0044339,-62
1737823576.0094337,-51
1737823576.0144339,-39
1737823576.0194337,-26
1737823576.0244339,-24
1737823576.0294337,-23
1737823576.0344338,-33
1737823576.0394337,-43
1737823576.0444338,-39
1737823576.0494337,-25
1737823576.0544338,-12
1737823576.0594337,-13
1737823576.0644338,-28
1737823576.0694337,-41
1737823576.0744338,-42
1737823576.079434,-50
1737823576.0847878,-66
1737823576.0897877,-90
1737823576.0947878,-105
1737823576.0997877,-117
1737823576.1047878,-128
1737823576.1097877,-151
1737823576.1147878,-168
1737823576.1197877,-180
1737823576.1247878,-171
1737823576.1297877,-149
1737823576.1347878,-122
1737823576.139788,-110
1737823576.1447878,-110
1737823576.149788,-121
1737823576.1547878,-131
1737823576.159788,-131
1737823576.1651416,-116
1737823576.1701417,-95
1737823576.1751416,-74
1737823576.1801417,-67
1737823576.1851416,-76
1737823576.1901417,-91
1737823576.1951416,-95
1737823576.2001417,-85
1737823576.2051415,-80
1737823576.2101417,-91
1737823576.2151415,-105
1737823576.2201416,-110
1737823576.2251415,-101
1737823576.2301416,-92
1737823576.2351415,-83
1737823576.2401416,-72
1737823576.2454956,-66
1737823576.2504957,-61
1737823576.2554955,-41
1737823576.2604957,-11
1737823576.2654955,-5
1737823576.2704957,-33
1737823576.2754955,-73
1737823576.2804956,-93
1737823576.2854955,-100
1737823576.2904956,-123
1737823576.2954955,-159
1737823576.3004956,-180
1737823576.3054955,-183
1737823576.3104956,-181
1737823576.3154955,-173
1737823576.3204956,-155
1737823576.3258495,-128
1737823576.3308496,-111
1737823576.3358495,-116
1737823576.3408496,-123
1737823576.3458495,-118
1737823576.3508496,-107
1737823576.3558495,-101
1737823576.3608496,-93
1737823576.3658495,-84
1737823576.3708496,-89
1737823576.3758495,-118
1737823576.3808496,-145
1737823576.3858497,-123
1737823576.3908496,-1
1737823576.3958497,306
1737823576.4008496,756
1737823576.4062035,1024
1737823576.4112036,749
1737823576.4162035,-26
1737823576.4212036,-774
1737823576.4262035,-1038
1737823576.4312036,-840
1737823576.4362037,-528
1737823576.4412036,-343
1737823576.4462037,-273
1737823576.4512036,-239
1737823576.4562037,-218
1737823576.4612036,-192
1737823576.4662037,-148
1737823576.4712036,-105
1737823576.4762037,-94
1737823576.4812036,-99
1737823576.4865575,-98
1737823576.4915576,-83
1737823576.4965577,-70
1737823576.5015576,-79
1737823576.5065577,-95
1737823576.5115576,-97
1737823576.5165577,-80
1737823576.5215576,-56
1737823576.5265577,-55
1737823576.5315576,-79
1737823576.5365577,-102
1737823576.5415576,-110
1737823576.5465577,-101
1737823576.5515575,-81
1737823576.5565577,-57
1737823576.5615575,-47
1737823576.5669117,-53
1737823576.5719116,-62
1737823576.5769117,-60
1737823576.5819116,-48
1737823576.5869117,-31
1737823576.5919116,-33
1737823576.5969117,-38
1737823576.6019115,-35
1737823576.6069117,-19
1737823576.6119115,-14
1737823576.6169116,-23
1737823576.6219115,-33
1737823576.6269116,-30
1737823576.6319115,-29
1737823576.6369116,-42
1737823576.6419115,-66
1737823576.6472654,-75
1737823576.6522653,-69
1737823576.6572654,-65
1737823576.6622653,-73
1737823576.6672654,-87
1737823576.6722653,-94
1737823576.6772654,-111
1737823576.6822653,-141
1737823576.6872654,-180
1737823576.6922655,-196
1737823576.6972654,-180
1737823576.7022655,-152
1737823576.7072654,-141
1737823576.7122655,-142
1737823576.7172654,-148
1737823576.7222655,-136
1737823576.7276194,-105
1737823576.7326193,-85
1737823576.7376194,-91
1737823576.7426195,-107
1737823576.7476194,-113
1737823576.7526195,-98
1737823576.7576194,-83
1737823576.7626195,-76
1737823576.7676194,-85
1737823576.7726195,-99
1737823576.7776194,-109
1737823576.7826195,-118
1737823576.7876194,-117
1737823576.7926195,-101
1737823576.7976193,-84
1737823576.8026195,-74
1737823576.8079731,-79
1737823576.8129733,-80
1737823576.8179731,-65
1737823576.8229733,-55
1737823576.8279731,-55
1737823576.8329732,-60
1737823576.837973,-61
1737823576.8429732,-63
1737823576.847973,-80
1737823576.8529732,-113
1737823576.857973,-147
1737823576.8629732,-164
1737823576.867973,-169
1737823576.8729732,-176
1737823576.8779733,-179
1737823576.8829732,-177
1737823576.8883271,-156
1737823576.8933272,-128
1737823576.898327,-118
1737823576.9033272,-114
1737823576.908327,-112
1737823576.9133272,-104
1737823576.918327,-103
1737823576.9233272,-108
1737823576.928327,-111
1737823576.9333272,-110
1737823576.9383273,-116
1737823576.9433272,-119
1737823576.9483273,-99
1737823576.9533272,-19
1737823576.9583273,205
1737823576.9633272,631
1737823576.968681,1025
1737823576.9736812,956
1737823576.978681,278
1737823576.9836812,-592
1737823576.9886813,-1064
1737823576.9936812,-976
1737823576.9986813,-648
1737823577.0036812,-423
1737823577.0086813,-340
1737823577.0136812,-287
1737823577.0186813,-231
1737823577.0236812,-195
1737823577.0286813,-168
1737823577.0336812,-150
1737823577.0386813,-129
1737823577.0436811,-109
1737823577.0490353,-101
1737823577.0540352,-97
1737823577.0590353,-87
1737823577.0640352,-72
1737823577.0690353,-67
1737823577.0740352,-73
1737823577.0790353,-86
1737823577.0840352,-92
1737823577.0890353,-89
1737823577.0940351,-77
1737823577.0990353,-71
1737823577.1040351,-71
1737823577.1090353,-67
1737823577.1140351,-63
1737823577.1190352,-62
1737823577.1240351,-60
1737823577.1293893,-51
1737823577.1343892,-47
1737823577.1393893,-47
1737823577.1443892,-54
1737823577.1493893,-53
1737823577.1543891,-42
1737823577.1593893,-27
1737823577.1643891,-19
1737823577.1693892,-21
1737823577.1743891,-22
1737823577.1793892,-21
1737823577.184389,-23
1737823577.1893892,-32
1737823577.194389,-42
1737823577.1993892,-50
1737823577.204389,-54
1737823577.209743,-51
1737823577.214743,-49
1737823577.219743,-57
1737823577.224743,-78
1737823577.229743,-99
1737823577.234743,-116
1737823577.239743,-128
1737823577.244743,-133
1737823577.249743,-139
1737823577.254743,-143
1737823577.259743,-149
1737823577.264743,-155
1737823577.269743,-152
1737823577.274743,-143
1737823577.279743,-134
1737823577.284743,-124
1737823577.290097,-114
1737823577.295097,-102
1737823577.300097,-92
1737823577.305097,-85
1737823577.310097,-81
1737823577.315097,-78
1737823577.320097,-76
1737823577.325097,-79
1737823577.330097,-83
1737823577.335097,-83
1737823577.340097,-84
1737823577.345097,-97
1737823577.350097,-106
1737823577.355097,-105
1737823577.360097,-87
1737823577.365097,-65
1737823577.3704507,-51
1737823577.3754508,-49
1737823577.3804507,-57
1737823577.3854508,-64
