                                                                                ECG                                                                             25.01.2516.42.59200 
Timestamp,Sample
1737823380.3569083,0
1737823380.3619084,0
1737823380.3669083,-3
1737823380.3719084,-4
1737823380.3769083,47
1737823380.3819084,-74
1737823380.3869083,-257
1737823380.3919084,745
1737823380.3969083,622
1737823380.4019084,-3413
1737823380.4069085,-2991
1737823380.4119084,7243
1737823380.4169085,8428
1737823380.4219084,-23321
1737823380.4269085,-79241
1737823380.4319084,-118722
1737823380.4373312,0
1737823380.4423313,0
1737823380.4473312,-2
1737823380.4523313,-3
1737823380.4573312,23
1737823380.4623313,-42
1737823380.4673312,-135
1737823380.4723313,387
1737823380.4773312,295
1737823380.4823313,-1766
1737823380.4873312,-1473
1737823380.4923313,3569
1737823380.4973311,3881
1737823380.5023313,-12080
1737823380.5073311,-40821
1737823380.5123312,-64551
1737823380.517754,-70961
1737823380.522754,-65638
1737823380.527754,-61636
1737823380.532754,-62480
1737823380.537754,-62964
1737823380.542754,-61659
1737823380.547754,-60704
1737823380.552754,-60087
1737823380.557754,-59322
1737823380.562754,-58535
1737823380.567754,-57805
1737823380.572754,-57196
1737823380.577754,-56357
1737823380.582754,-55119
1737823380.587754,-54458
1737823380.592754,-54842
1737823380.5981767,-53843
1737823380.6031768,-46964
1737823380.6081767,-31735
1737823380.6131768,-10051
1737823380.6181767,14706
1737823380.6231768,40898
1737823380.6281767,66777
1737823380.6331768,87930
1737823380.638177,100059
1737823380.6431768,103696
1737823380.648177,103496
1737823380.6531768,103394
1737823380.658177,103962
1737823380.6631768,104097
1737823380.668177,103564
1737823380.6731768,102869
1737823380.6785996,102116
1737823380.6835997,101213
1737823380.6885996,100197
1737823380.6935997,99095
1737823380.6985996,97913
1737823380.7035997,96678
1737823380.7085996,95408
1737823380.7135997,94099
1737823380.7185996,92747
1737823380.7235997,91333
1737823380.7285995,89842
1737823380.7335997,88268
1737823380.7385995,86573
1737823380.7435997,84584
1737823380.7485995,82271
1737823380.7535996,79623
1737823380.7590225,75945
1737823380.7640224,70576
1737823380.7690225,64059
1737823380.7740223,57524
1737823380.7790225,51365
1737823380.7840223,45255
1737823380.7890224,39336
1737823380.7940223,34514
1737823380.7990224,31415
1737823380.8040223,29467
1737823380.8090224,27725
1737823380.8140223,26146
1737823380.8190224,25021
1737823380.8240223,24193
1737823380.8290224,23464
1737823380.8340223,22806
1737823380.839445,22215
1737823380.844445,21653
1737823380.849445,21096
1737823380.854445,20568
1737823380.859445,20134
1737823380.864445,19674
1737823380.869445,19028
1737823380.874445,18458
1737823380.879445,18423
1737823380.884445,18831
1737823380.889445,18867
1737823380.894445,17788
1737823380.899445,15622
1737823380.904445,12933
1737823380.909445,10052
1737823380.914445,7003
1737823380.9198678,3871
1737823380.9248679,804
1737823380.9298677,-2197
1737823380.9348679,-5038
1737823380.9398677,-7342
1737823380.9448678,-8771
1737823380.9498677,-9415
1737823380.9548678,-9663
1737823380.9598677,-9789
1737823380.9648678,-9832
1737823380.9698677,-9799
1737823380.9748678,-9738
1737823380.9798677,-9659
1737823380.9848678,-9553
1737823380.9898677,-9426
1737823380.9948678,-9306
1737823381.0002906,-9188
1737823381.0052905,-9065
1737823381.0102906,-8930
1737823381.0152905,-8804
1737823381.0202906,-8682
1737823381.0252905,-8546
1737823381.0302906,-8421
1737823381.0352907,-8321
1737823381.0402906,-8230
1737823381.0452907,-8111
1737823381.0502906,-7975
1737823381.0552907,-7830
1737823381.0602906,-7692
1737823381.0652907,-7553
1737823381.0702906,-7438
1737823381.0752907,-7340
1737823381.0807135,-7236
1737823381.0857134,-7111
1737823381.0907135,-7002
1737823381.0957134,-6906
1737823381.1007135,-6816
1737823381.1057134,-6704
1737823381.1107135,-6588
1737823381.1157134,-6479
1737823381.1207135,-6377
1737823381.1257133,-6280
1737823381.1307135,-6194
1737823381.1357133,-6122
1737823381.1407135,-6066
1737823381.1457133,-6015
1737823381.1507134,-5950
1737823381.1557133,-5831
1737823381.1611362,-5684
1737823381.1661363,-5575
1737823381.1711361,-5505
1737823381.1761363,-5428
1737823381.1811361,-5314
1737823381.1861362,-5212
1737823381.1911361,-5155
1737823381.1961362,-5105
1737823381.201136,-5016
1737823381.2061362,-4917
1737823381.211136,-4844
1737823381.2161362,-4799
1737823381.221136,-4743
1737823381.2261362,-4673
1737823381.231136,-4596
1737823381.2361362,-4517
1737823381.241559,-4440
1737823381.246559,-4369
1737823381.251559,-4290
1737823381.256559,-4208
1737823381.261559,-4143
1737823381.266559,-4119
1737823381.271559,-4096
1737823381.276559,-4025
1737823381.281559,-3921
1737823381.286559,-3837
1737823381.291559,-3791
1737823381.296559,-3756
1737823381.301559,-3725
1737823381.306559,-3682
1737823381.311559,-3609
1737823381.316559,-3513
1737823381.3219817,-3432
1737823381.3269815,-3398
1737823381.3319817,-3385
1737823381.3369815,-3358
1737823381.3419816,-3296
1737823381.3469815,-3217
1737823381.3519816,-3131
1737823381.3569815,-3053
1737823381.3619816,-3000
1737823381.3669815,-2959
1737823381.3719816,-2914
1737823381.3769815,-2858
1737823381.3819816,-2800
1737823381.3869815,-2750
1737823381.3919816,-2725
1737823381.3969817,-2726
1737823381.4024043,-2719
1737823381.4074044,-2657
1737823381.4124043,-2552
1737823381.4174044,-2474
1737823381.4224043,-2467
1737823381.4274044,-2495
1737823381.4324045,-2489
1737823381.4374044,-2432
1737823381.4424045,-2355
1737823381.4474044,-2310
1737823381.4524045,-2303
1737823381.4574044,-2286
1737823381.4624045,-2234
1737823381.4674044,-2183
1737823381.4724045,-2164
1737823381.4774044,-2155
1737823381.4828272,-2117
1737823381.4878273,-2061
1737823381.4928272,-2036
1737823381.4978273,-2028
1737823381.5028272,-2007
1737823381.5078273,-1948
1737823381.5128272,-1880
1737823381.5178273,-1829
1737823381.5228271,-1804
1737823381.5278273,-1792
1737823381.5328271,-1780
1737823381.5378273,-1757
1737823381.5428271,-1726
1737823381.5478272,-1698
1737823381.5528271,-1692
1737823381.5578272,-1684
1737823381.56325,-1650
1737823381.56825,-1599
1737823381.57325,-1564
1737823381.57825,-1566
1737823381.58325,-1587
1737823381.58825,-1580
1737823381.59325,-1526
1737823381.59825,-1457
1737823381.60325,-1428
1737823381.60825,-1444
1737823381.61325,-1444
1737823381.61825,-1386
1737823381.62325,-1293
1737823381.62825,-1256
1737823381.63325,-1303
1737823381.63825,-1373
1737823381.6436727,-1371
1737823381.6486728,-1301
1737823381.6536727,-1227
1737823381.6586728,-1193
1737823381.6636727,-1185
1737823381.6686728,-1190
1737823381.673673,-1186
1737823381.6786728,-1176
1737823381.683673,-1150
1737823381.6886728,-1117
1737823381.693673,-1091
1737823381.6986728,-1085
1737823381.703673,-1090
1737823381.7086728,-1085
1737823381.7136729,-1062
1737823381.7186728,-1034
1737823381.7240956,-1019
1737823381.7290957,-1010
1737823381.7340956,-987
1737823381.7390957,-956
1737823381.7440956,-939
1737823381.7490957,-945
1737823381.7540956,-953
1737823381.7590957,-936
1737823381.7640955,-889
1737823381.7690957,-853
1737823381.7740955,-844
1737823381.7790956,-861
1737823381.7840955,-880
1737823381.7890956,-876
1737823381.7940955,-836
1737823381.7990956,-776
1737823381.8045185,-729
1737823381.8095183,-712
1737823381.8145185,-708
1737823381.8195183,-717
1737823381.8245184,-725
1737823381.8295183,-735
1737823381.8345184,-749
1737823381.8395183,-751
1737823381.8445184,-730
1737823381.8495183,-700
1737823381.8545184,-687
1737823381.8595183,-715
1737823381.8645184,-749
1737823381.8695185,-743
1737823381.8745184,-700
1737823381.8795185,-672
1737823381.884941,-655
1737823381.8899412,-629
1737823381.894941,-600
1737823381.8999412,-600
1737823381.904941,-628
1737823381.9099412,-642
1737823381.9149413,-617
1737823381.9199412,-596
1737823381.9249413,-601
1737823381.9299412,-607
1737823381.9349413,-570
1737823381.9399412,-523
1737823381.9449413,-500
1737823381.9499412,-510
1737823381.9549413,-520
1737823381.9599411,-535
1737823381.965364,-551
1737823381.970364,-559
1737823381.975364,-544
1737823381.980364,-508
1737823381.985364,-471
1737823381.990364,-466
1737823381.995364,-488
1737823382.000364,-500
1737823382.005364,-487
1737823382.010364,-471
1737823382.015364,-468
1737823382.020364,-465
1737823382.025364,-447
1737823382.030364,-421
1737823382.035364,-428
1737823382.040364,-465
1737823382.0457869,-474
1737823382.0507867,-441
1737823382.0557868,-417
1737823382.0607867,-422
1737823382.0657868,-433
1737823382.0707867,-421
1737823382.0757868,-382
1737823382.0807867,-351
1737823382.0857868,-366
1737823382.0907867,-401
1737823382.0957868,-413
1737823382.1007867,-384
1737823382.1057868,-336
1737823382.110787,-321
1737823382.1157868,-338
1737823382.120787,-354
1737823382.1262095,-356
1737823382.1312096,-358
1737823382.1362095,-364
1737823382.1412096,-367
1737823382.1462097,-369
1737823382.1512096,-374
1737823382.1562097,-365
1737823382.1612096,-345
1737823382.1662097,-317
1737823382.1712096,-301
1737823382.1762097,-304
1737823382.1812096,-321
1737823382.1862097,-350
1737823382.1912096,-378
1737823382.1962097,-382
1737823382.2012095,-373
1737823382.2066324,-348
1737823382.2116325,-311
1737823382.2166324,-271
1737823382.2216325,-255
1737823382.2266324,-264
1737823382.2316325,-281
1737823382.2366323,-267
1737823382.2416325,-233
1737823382.2466323,-225
1737823382.2516325,-258
1737823382.2566323,-295
1737823382.2616324,-300
1737823382.2666323,-278
1737823382.2716324,-250
1737823382.2766323,-230
1737823382.2816324,-205
1737823382.2870553,-187
1737823382.2920551,-194
1737823382.2970552,-218
1737823382.3020551,-243
1737823382.3070552,-257
1737823382.312055,-254
1737823382.3170552,-238
1737823382.322055,-228
1737823382.3270552,-242
1737823382.332055,-266
1737823382.3370552,-272
1737823382.342055,-237
1737823382.3470552,-195
1737823382.3520553,-186
1737823382.3570552,-199
1737823382.3620553,-202
1737823382.367478,-192
1737823382.372478,-171
1737823382.377478,-171
1737823382.382478,-188
1737823382.387478,-199
1737823382.392478,-171
1737823382.397478,-135
1737823382.402478,-129
1737823382.407478,-155
1737823382.412478,-185
1737823382.417478,-182
1737823382.422478,-159
1737823382.427478,-155
1737823382.432478,-166
1737823382.437478,-173
1737823382.442478,-168
1737823382.4479008,-160
1737823382.452901,-170
1737823382.4579008,-178
1737823382.4629009,-177
1737823382.4679008,-195
1737823382.4729009,-212
1737823382.4779007,-171
1737823382.4829009,-72
1737823382.4879007,-22
1737823382.4929008,-76
1737823382.4979007,-166
1737823382.5029008,-200
1737823382.5079007,-180
1737823382.5129008,-163
1737823382.5179007,-167
1737823382.5229008,-166
1737823382.5283237,-159
1737823382.5333235,-171
1737823382.5383236,-186
1737823382.5433235,-177
1737823382.5483236,-161
1737823382.5533235,-152
1737823382.5583236,-143
1737823382.5633235,-115
1737823382.5683236,-94
1737823382.5733235,-101
1737823382.5783236,-127
1737823382.5833237,-151
1737823382.5883236,-156
1737823382.5933237,-141
1737823382.5983236,-129
1737823382.6033237,-131
1737823382.6087463,-145
1737823382.6137464,-155
1737823382.6187465,-135
1737823382.6237464,-105
1737823382.6287465,-118
1737823382.6337464,-164
1737823382.6387465,-184
1737823382.6437464,-146
1737823382.6487465,-92
1737823382.6537464,-74
1737823382.6587465,-96
1737823382.6637464,-120
1737823382.6687465,-130
1737823382.6737463,-134
1737823382.6787465,-130
1737823382.6837463,-105
1737823382.689169,-75
1737823382.694169,-83
1737823382.699169,-122
1737823382.704169,-165
1737823382.709169,-169
1737823382.714169,-146
1737823382.719169,-130
1737823382.724169,-138
1737823382.729169,-150
1737823382.734169,-150
1737823382.739169,-147
1737823382.744169,-151
1737823382.749169,-171
1737823382.754169,-188
1737823382.759169,-179
1737823382.764169,-150
1737823382.7695918,-136
1737823382.7745917,-151
1737823382.7795918,-168
1737823382.784592,-157
1737823382.7895918,-116
1737823382.794592,-81
1737823382.7995918,-79
1737823382.804592,-103
1737823382.8095918,-135
1737823382.814592,-164
1737823382.8195918,-179
1737823382.8245919,-180
1737823382.8295918,-179
1737823382.8345919,-172
1737823382.8395917,-149
1737823382.8445919,-123
1737823382.8500147,-103
1737823382.8550146,-104
1737823382.8600147,-111
1737823382.8650146,-125
1737823382.8700147,-155
1737823382.8750145,-189
1737823382.8800147,-188
1737823382.8850145,-147
1737823382.8900146,-102
1737823382.8950145,-103
1737823382.9000146,-124
1737823382.9050145,-128
1737823382.9100146,-125
1737823382.9150145,-127
1737823382.9200146,-127
1737823382.9250145,-114
1737823382.9304373,-104
1737823382.9354374,-103
1737823382.9404373,-103
1737823382.9454374,-107
1737823382.9504373,-126
1737823382.9554374,-164
1737823382.9604373,-175
1737823382.9654374,-131
1737823382.9704373,-94
1737823382.9754374,-107
1737823382.9804375,-136
1737823382.9854374,-130
1737823382.9904375,-108
1737823382.9954374,-88
1737823383.0004375,-67
1737823383.0054374,-48
1737823383.0108602,-54
1737823383.0158603,-104
1737823383.0208602,-162
1737823383.0258603,-181
1737823383.0308602,-150
1737823383.0358603,-108
1737823383.0408602,-84
1737823383.0458603,-76
1737823383.0508602,-76
1737823383.0558603,-69
1737823383.0608602,-51
1737823383.0658603,-56
1737823383.0708601,-85
1737823383.0758603,-117
1737823383.0808601,-140
1737823383.0858603,-147
1737823383.0912828,-138
1737823383.0962827,-114
1737823383.1012828,-91
1737823383.1062827,-97
1737823383.1112828,-129
1737823383.1162827,-157
1737823383.1212828,-145
1737823383.1262827,-108
1737823383.1312828,-88
1737823383.1362827,-106
1737823383.1412828,-131
1737823383.146283,-136
1737823383.1512828,-130
1737823383.156283,-124
1737823383.1612828,-108
1737823383.166283,-74
1737823383.1717055,-45
1737823383.1767056,-47
1737823383.1817057,-77
1737823383.1867056,-107
1737823383.1917057,-123
1737823383.1967056,-124
1737823383.2017057,-119
1737823383.2067056,-83
1737823383.2117057,-57
1737823383.2167056,-79
1737823383.2217057,-121
1737823383.2267056,-138
1737823383.2317057,-130
1737823383.2367055,-104
1737823383.2417057,-101
1737823383.2467055,-136
1737823383.2521284,-176
1737823383.2571285,-185
1737823383.2621284,-156
1737823383.2671285,-101
1737823383.2721283,-65
1737823383.2771285,-80
1737823383.2821283,-110
1737823383.2871284,-119
1737823383.2921283,-113
1737823383.2971284,-107
1737823383.3021283,-117
1737823383.3071284,-133
1737823383.3121283,-123
1737823383.3171284,-103
1737823383.3221283,-109
1737823383.3271284,-135
1737823383.3325512,-139
1737823383.337551,-125
1737823383.3425512,-106
1737823383.347551,-101
1737823383.3525512,-97
1737823383.357551,-89
1737823383.3625512,-64
1737823383.367551,-45
1737823383.3725512,-43
1737823383.3775513,-63
1737823383.3825512,-90
1737823383.3875513,-101
1737823383.3925512,-90
1737823383.3975513,-89
1737823383.4025512,-113
1737823383.4075513,-127
1737823383.412974,-107
1737823383.417974,-82
1737823383.422974,-84
1737823383.427974,-107
1737823383.432974,-108
1737823383.437974,-82
1737823383.442974,-56
1737823383.447974,-54
1737823383.452974,-49
1737823383.457974,-44
1737823383.462974,-56
1737823383.467974,-81
1737823383.472974,-104
1737823383.477974,-111
1737823383.482974,-100
1737823383.487974,-82
1737823383.4933968,-62
1737823383.4983969,-49
1737823383.5033967,-56
1737823383.5083969,-75
1737823383.5133967,-91
1737823383.5183969,-102
1737823383.5233967,-103
1737823383.5283968,-84
1737823383.5333967,-64
1737823383.5383968,-62
1737823383.5433967,-85
1737823383.5483968,-97
1737823383.5533967,-92
1737823383.5583968,-88
1737823383.5633967,-87
1737823383.5683968,-74
1737823383.5738196,-68
1737823383.5788195,-86
1737823383.5838196,-107
1737823383.5888195,-104
1737823383.5938196,-89
1737823383.5988195,-91
1737823383.6038196,-98
1737823383.6088195,-80
1737823383.6138196,-55
1737823383.6188197,-61
1737823383.6238196,-94
1737823383.6288197,-105
1737823383.6338196,-94
1737823383.6388197,-90
1737823383.6438196,-106
1737823383.6488197,-109
1737823383.6542425,-82
1737823383.6592424,-66
1737823383.6642425,-78
1737823383.6692424,-97
1737823383.6742425,-88
1737823383.6792424,-79
1737823383.6842425,-81
1737823383.6892424,-96
1737823383.6942425,-83
1737823383.6992424,-60
1737823383.7042425,-70
1737823383.7092423,-125
1737823383.7142425,-157
1737823383.7192423,-128
1737823383.7242424,-80
1737823383.7292423,-70
1737823383.7346652,-78
1737823383.7396653,-73
1737823383.7446651,-55
1737823383.7496653,-58
1737823383.7546651,-87
1737823383.7596653,-103
1737823383.7646651,-98
1737823383.7696652,-116
1737823383.774665,-147
1737823383.7796652,-165
1737823383.784665,-151
1737823383.7896652,-118
1737823383.794665,-94
1737823383.7996652,-96
1737823383.804665,-122
1737823383.8096652,-152
1737823383.815088,-158
1737823383.820088,-139
1737823383.825088,-117
1737823383.830088,-103
1737823383.835088,-82
1737823383.840088,-60
1737823383.845088,-63
1737823383.850088,-96
1737823383.855088,-119
1737823383.860088,-120
1737823383.865088,-131
1737823383.870088,-150
1737823383.875088,-149
1737823383.880088,-146
1737823383.885088,-176
1737823383.890088,-214
1737823383.895511,-210
1737823383.9005108,-160
1737823383.905511,-122
1737823383.9105108,-126
1737823383.915511,-139
1737823383.9205108,-116
1737823383.925511,-83
1737823383.9305108,-74
1737823383.9355109,-102
1737823383.9405107,-135
1737823383.9455109,-157
1737823383.9505107,-143
1737823383.9555109,-115
1737823383.9605107,-111
1737823383.9655108,-122
1737823383.9705107,-118
1737823383.9759336,-122
1737823383.9809337,-150
1737823383.9859335,-176
1737823383.9909337,-161
1737823383.9959335,-95
1737823384.0009336,-26
1737823384.0059335,-11
1737823384.0109336,-48
1737823384.0159335,-86
1737823384.0209336,-102
1737823384.0259335,-98
1737823384.0309336,-76
1737823384.0359335,-57
1737823384.0409336,-43
1737823384.0459335,-27
1737823384.0509336,-33
1737823384.0563564,-65
1737823384.0613563,-89
1737823384.0663564,-83
1737823384.0713563,-62
1737823384.0763564,-51
1737823384.0813563,-53
1737823384.0863564,-75
1737823384.0913565,-91
1737823384.0963564,-97
1737823384.1013565,-89
1737823384.1063564,-68
1737823384.1113565,-47
1737823384.1163564,-53
1737823384.1213565,-88
1737823384.1263564,-109
1737823384.1313565,-86
1737823384.1367793,-54
1737823384.1417792,-64
1737823384.1467793,-103
1737823384.1517792,-114
1737823384.1567793,-78
1737823384.1617792,-52
1737823384.1667793,-68
1737823384.1717792,-101
1737823384.1767793,-115
1737823384.1817791,-114
1737823384.1867793,-105
1737823384.1917791,-90
1737823384.1967793,-77
1737823384.2017791,-81
1737823384.2067792,-96
1737823384.211779,-111
1737823384.217202,-110
1737823384.222202,-88
1737823384.227202,-72
1737823384.232202,-75
1737823384.237202,-84
1737823384.242202,-87
1737823384.247202,-89
1737823384.252202,-90
1737823384.257202,-98
1737823384.262202,-106
1737823384.267202,-118
1737823384.272202,-140
1737823384.277202,-153
1737823384.282202,-136
1737823384.287202,-110
1737823384.292202,-89
1737823384.2976248,-64
1737823384.3026247,-45
1737823384.3076248,-58
1737823384.3126247,-100
1737823384.3176248,-142
1737823384.3226247,-135
1737823384.3276248,-92
1737823384.332625,-51
1737823384.3376248,-47
1737823384.342625,-64
1737823384.3476248,-94
1737823384.352625,-124
1737823384.3576248,-150
1737823384.362625,-154
1737823384.3676248,-152
1737823384.3726249,-142
1737823384.3780477,-119
1737823384.3830476,-76
1737823384.3880477,-53
1737823384.3930476,-87
1737823384.3980477,-146
1737823384.4030476,-158
1737823384.4080477,-114
1737823384.4130476,-51
1737823384.4180477,-45
1737823384.4230475,-86
1737823384.4280477,-120
1737823384.4330475,-110
1737823384.4380476,-81
1737823384.4430475,-70
1737823384.4480476,-87
1737823384.4530475,-109
1737823384.45847,-123
1737823384.4634702,-135
1737823384.46847,-152
1737823384.4734702,-145
1737823384.47847,-112
1737823384.4834702,-90
1737823384.4884703,-97
1737823384.4934702,-129
1737823384.4984703,-149
1737823384.5034702,-136
1737823384.5084703,-125
1737823384.5134702,-138
1737823384.5184703,-153
1737823384.5234702,-147
1737823384.5284703,-134
1737823384.5334702,-122
1737823384.538893,-103
1737823384.543893,-68
1737823384.548893,-53
1737823384.553893,-82
1737823384.558893,-126
1737823384.563893,-116
1737823384.568893,-64
1737823384.573893,-29
1737823384.578893,-68
1737823384.583893,-148
1737823384.588893,-191
1737823384.593893,-185
1737823384.598893,-146
1737823384.603893,-95
1737823384.608893,-72
1737823384.613893,-101
1737823384.6193159,-151
1737823384.6243157,-154
1737823384.6293159,-92
1737823384.6343157,-7
1737823384.6393158,45
1737823384.6443157,39
1737823384.6493158,0
1737823384.6543157,-49
1737823384.6593158,-98
1737823384.6643157,-113
1737823384.6693158,-84
1737823384.6743157,-45
1737823384.6793158,-36
1737823384.6843157,-61
1737823384.6893158,-88
1737823384.694316,-92
1737823384.6997385,-88
1737823384.7047386,-102
1737823384.7097385,-142
1737823384.7147386,-166
1737823384.7197385,-149
1737823384.7247386,-122
1737823384.7297387,-107
1737823384.7347386,-93
1737823384.7397387,-83
1737823384.7447386,-82
1737823384.7497387,-105
1737823384.7547386,-128
1737823384.7597387,-117
1737823384.7647386,-95
1737823384.7697387,-101
1737823384.7747386,-112
1737823384.7801614,-103
1737823384.7851615,-87
1737823384.7901614,-72
1737823384.7951615,-75
1737823384.8001614,-84
1737823384.8051615,-75
1737823384.8101614,-67
1737823384.8151615,-82
1737823384.8201613,-98
1737823384.8251615,-94
1737823384.8301613,-79
1737823384.8351614,-62
1737823384.8401613,-50
1737823384.8451614,-63
1737823384.8501613,-73
1737823384.8551614,-72
1737823384.8605843,-79
1737823384.8655841,-88
1737823384.8705842,-91
1737823384.8755841,-83
1737823384.8805842,-79
1737823384.885584,-103
1737823384.8905842,-135
1737823384.895584,-137
1737823384.9005842,-119
1737823384.905584,-120
1737823384.9105842,-122
1737823384.915584,-107
1737823384.9205842,-84
1737823384.9255843,-72
1737823384.9305842,-84
1737823384.9355843,-102
1737823384.941007,-96
1737823384.9460068,-82
1737823384.951007,-82
1737823384.9560068,-99
1737823384.9610069,-116
1737823384.9660068,-114
1737823384.9710069,-86
1737823384.9760067,-75
1737823384.9810069,-116
1737823384.9860067,-156
1737823384.9910069,-139
1737823384.9960067,-82
1737823385.0010068,-58
1737823385.0060067,-83
1737823385.0110068,-108
1737823385.0160067,-96
1737823385.0214295,-70
1737823385.0264297,-63
1737823385.0314295,-78
1737823385.0364296,-94
1737823385.0414295,-105
1737823385.0464296,-116
1737823385.0514295,-122
1737823385.0564296,-115
1737823385.0614295,-97
1737823385.0664296,-70
1737823385.0714295,-51
1737823385.0764296,-54
1737823385.0814295,-68
1737823385.0864296,-80
1737823385.0914297,-96
1737823385.0964296,-104
1737823385.1018524,-99
1737823385.1068523,-88
1737823385.1118524,-93
1737823385.1168523,-114
1737823385.1218524,-133
1737823385.1268525,-134
1737823385.1318524,-134
1737823385.1368525,-152
1737823385.1418524,-170
1737823385.1468525,-160
1737823385.1518524,-132
1737823385.1568525,-106
1737823385.1618524,-90
1737823385.1668525,-81
1737823385.1718524,-85
1737823385.1768525,-101
1737823385.1822753,-119
1737823385.1872752,-121
1737823385.1922753,-101
1737823385.1972752,-72
1737823385.2022753,-51
1737823385.2072752,-57
1737823385.2122753,-72
1737823385.2172751,-80
1737823385.2222753,-81
1737823385.2272751,-81
1737823385.2322752,-96
1737823385.2372751,-123
1737823385.2422752,-130
1737823385.247275,-120
1737823385.2522752,-112
1737823385.257275,-107
1737823385.262698,-97
1737823385.267698,-91
1737823385.272698,-99
1737823385.277698,-131
1737823385.282698,-156
1737823385.287698,-152
1737823385.292698,-103
1737823385.297698,-52
1737823385.302698,-22
1737823385.307698,-54
1737823385.312698,-118
1737823385.317698,-154
1737823385.322698,-131
1737823385.327698,-86
1737823385.332698,-63
1737823385.337698,-81
1737823385.3431208,-110
1737823385.3481207,-139
1737823385.3531208,-153
1737823385.358121,-145
1737823385.3631208,-124
1737823385.368121,-117
1737823385.3731208,-125
1737823385.378121,-126
1737823385.3831208,-114
1737823385.388121,-84
1737823385.3931208,-53
1737823385.3981209,-41
1737823385.4031208,-56
1737823385.4081209,-83
1737823385.4131207,-99
1737823385.4181209,-88
1737823385.4235437,-71
1737823385.4285436,-84
1737823385.4335437,-116
1737823385.4385436,-141
1737823385.4435437,-146
1737823385.4485435,-125
1737823385.4535437,-96
1737823385.4585435,-77
1737823385.4635437,-75
1737823385.4685435,-82
1737823385.4735436,-97
1737823385.4785435,-94
1737823385.4835436,-79
1737823385.4885435,-78
1737823385.4935436,-108
1737823385.4985435,-140
1737823385.5039663,-163
1737823385.5089664,-169
1737823385.5139663,-155
1737823385.5189664,-135
1737823385.5239663,-129
1737823385.5289664,-120
1737823385.5339663,-96
1737823385.5389664,-62
1737823385.5439663,-53
1737823385.5489664,-71
1737823385.5539663,-88
1737823385.5589664,-77
1737823385.5639665,-70
1737823385.5689664,-90
1737823385.5739665,-100
1737823385.5789664,-88
1737823385.5843892,-78
1737823385.589389,-99
1737823385.5943892,-111
1737823385.5993893,-97
1737823385.6043892,-62
1737823385.6093893,-40
1737823385.6143892,-51
1737823385.6193893,-93
1737823385.6243892,-140
1737823385.6293893,-170
1737823385.6343892,-163
1737823385.6393893,-122
1737823385.6443892,-72
1737823385.6493893,-45
1737823385.6543891,-54
1737823385.6593893,-92
1737823385.664812,-117
1737823385.669812,-106
1737823385.674812,-74
1737823385.679812,-69
1737823385.684812,-101
1737823385.689812,-146
1737823385.694812,-177
1737823385.699812,-155
1737823385.704812,-106
1737823385.709812,-84
1737823385.714812,-108
1737823385.719812,-134
1737823385.724812,-116
1737823385.729812,-80
1737823385.734812,-71
1737823385.739812,-80
1737823385.7452347,-85
1737823385.7502348,-85
1737823385.7552347,-97
1737823385.7602348,-106
1737823385.7652347,-95
1737823385.7702348,-83
1737823385.7752347,-88
1737823385.7802348,-99
1737823385.7852347,-112
1737823385.7902348,-127
1737823385.795235,-150
1737823385.8002348,-148
1737823385.805235,-129
1737823385.8102348,-121
1737823385.815235,-130
1737823385.8202348,-130
1737823385.8256576,-125
1737823385.8306575,-123
1737823385.8356576,-115
1737823385.8406577,-106
1737823385.8456576,-115
1737823385.8506577,-142
1737823385.8556576,-162
1737823385.8606577,-143
1737823385.8656576,-110
1737823385.8706577,-105
1737823385.8756576,-109
1737823385.8806577,-98
1737823385.8856575,-67
1737823385.8906577,-58
1737823385.8956575,-74
1737823385.9006577,-94
1737823385.9060805,-99
1737823385.9110804,-90
1737823385.9160805,-70
1737823385.9210804,-48
1737823385.9260805,-30
1737823385.9310803,-39
1737823385.9360805,-67
1737823385.9410803,-81
1737823385.9460804,-66
1737823385.9510803,-59
1737823385.9560804,-93
1737823385.9610803,-132
1737823385.9660804,-145
1737823385.9710803,-141
1737823385.9760804,-149
1737823385.9810803,-153
1737823385.9865031,-136
1737823385.9915032,-116
1737823385.996503,-121
1737823386.0015032,-137
1737823386.006503,-133
1737823386.0115032,-99
1737823386.016503,-79
1737823386.0215032,-87
1737823386.026503,-109
1737823386.0315032,-118
1737823386.0365033,-116
1737823386.0415032,-96
1737823386.0465033,-80
1737823386.0515032,-71
1737823386.0565033,-83
1737823386.0615032,-106
1737823386.066926,-130
1737823386.071926,-132
1737823386.076926,-119
1737823386.081926,-101
1737823386.086926,-88
1737823386.091926,-98
1737823386.096926,-129
1737823386.101926,-136
1737823386.106926,-112
1737823386.111926,-86
1737823386.116926,-86
1737823386.121926,-105
1737823386.126926,-107
1737823386.131926,-70
1737823386.136926,-50
1737823386.141926,-71
1737823386.1473489,-93
1737823386.1523488,-79
1737823386.1573489,-64
1737823386.1623487,-84
1737823386.1673489,-119
1737823386.1723487,-132
1737823386.1773489,-113
1737823386.1823487,-80
1737823386.1873488,-59
1737823386.1923487,-62
1737823386.1973488,-95
1737823386.2023487,-142
1737823386.2073488,-164
1737823386.2123487,-133
1737823386.2173488,-88
1737823386.2223487,-76
1737823386.2277715,-93
1737823386.2327716,-101
1737823386.2377715,-95
1737823386.2427716,-92
1737823386.2477715,-97
1737823386.2527716,-104
1737823386.2577715,-107
1737823386.2627716,-111
1737823386.2677715,-122
1737823386.2727716,-135
1737823386.2777717,-133
1737823386.2827716,-118
1737823386.2877717,-113
1737823386.2927716,-114
1737823386.2977717,-106
1737823386.3027716,-90
1737823386.3081942,-86
1737823386.3131943,-96
1737823386.3181942,-103
1737823386.3231943,-96
1737823386.3281941,-87
1737823386.3331943,-76
1737823386.3381941,-56
1737823386.3431942,-40
1737823386.3481941,-38
1737823386.3531942,-44
1737823386.358194,-50
1737823386.3631942,-68
1737823386.368194,-98
1737823386.3731942,-113
1737823386.378194,-102
1737823386.3831942,-93
1737823386.388617,-122
1737823386.393617,-148
1737823386.398617,-121
1737823386.403617,-61
1737823386.408617,-32
1737823386.413617,-60
1737823386.418617,-118
1737823386.423617,-148
1737823386.428617,-138
1737823386.433617,-117
1737823386.438617,-111
1737823386.443617,-110
1737823386.448617,-111
1737823386.453617,-117
1737823386.458617,-136
1737823386.463617,-155
1737823386.46904,-147
1737823386.4740398,-111
1737823386.47904,-85
1737823386.4840398,-98
1737823386.48904,-119
1737823386.4940398,-111
1737823386.49904,-58
1737823386.5040398,-13
1737823386.5090399,-40
1737823386.5140398,-100
1737823386.5190399,-126
1737823386.5240397,-101
1737823386.5290399,-77
1737823386.5340397,-96
1737823386.5390399,-120
1737823386.5440397,-98
1737823386.5494626,-53
1737823386.5544627,-36
1737823386.5594625,-61
1737823386.5644627,-90
1737823386.5694625,-105
1737823386.5744627,-115
1737823386.5794625,-126
1737823386.5844626,-115
1737823386.5894625,-83
1737823386.5944626,-70
1737823386.5994625,-91
1737823386.6044626,-106
1737823386.6094625,-104
1737823386.6144626,-97
1737823386.6194625,-92
1737823386.6244626,-87
1737823386.6298854,-67
1737823386.6348853,-44
1737823386.6398854,-50
1737823386.6448853,-92
1737823386.6498854,-125
1737823386.6548853,-129
1737823386.6598854,-97
1737823386.6648853,-56
1737823386.6698854,-48
1737823386.6748855,-85
1737823386.6798854,-130
1737823386.6848855,-143
1737823386.6898854,-132
1737823386.6948855,-135
1737823386.6998854,-147
1737823386.7048855,-145
1737823386.710308,-124
1737823386.715308,-92
1737823386.720308,-70
1737823386.725308,-62
1737823386.730308,-63
1737823386.735308,-62
1737823386.740308,-66
1737823386.745308,-77
1737823386.750308,-94
1737823386.755308,-109
1737823386.760308,-111
1737823386.765308,-105
1737823386.770308,-95
1737823386.775308,-87
1737823386.780308,-84
1737823386.785308,-90
1737823386.7907307,-101
1737823386.7957308,-102
1737823386.8007307,-82
1737823386.8057308,-78
1737823386.8107307,-109
1737823386.8157308,-149
1737823386.8207307,-157
1737823386.8257308,-134
1737823386.830731,-110
1737823386.8357308,-108
1737823386.840731,-111
1737823386.8457308,-106
1737823386.850731,-93
1737823386.8557308,-95
1737823386.860731,-103
1737823386.8657308,-115
1737823386.8711536,-117
1737823386.8761537,-119
1737823386.8811536,-114
1737823386.8861537,-105
1737823386.8911536,-97
1737823386.8961537,-94
1737823386.9011536,-91
1737823386.9061537,-72
1737823386.9111536,-43
1737823386.9161537,-54
1737823386.9211535,-104
1737823386.9261537,-129
1737823386.9311535,-101
1737823386.9361537,-67
1737823386.9411535,-54
1737823386.9461536,-62
1737823386.9515765,-83
1737823386.9565763,-114
1737823386.9615765,-153
1737823386.9665763,-170
1737823386.9715765,-140
1737823386.9765763,-111
1737823386.9815764,-115
1737823386.9865763,-110
1737823386.9915764,-94
1737823386.9965763,-123
1737823387.0015764,-168
1737823387.0065763,-181
1737823387.0115764,-157
1737823387.0165763,-134
1737823387.0215764,-125
1737823387.0265765,-122
1737823387.031999,-98
1737823387.0369992,-72
1737823387.041999,-83
1737823387.0469992,-111
1737823387.051999,-114
1737823387.0569992,-97
1737823387.061999,-90
1737823387.0669992,-91
1737823387.0719993,-95
1737823387.0769992,-93
1737823387.0819993,-103
1737823387.0869992,-130
1737823387.0919993,-150
1737823387.0969992,-139
1737823387.1019993,-115
1737823387.1069992,-113
1737823387.112422,-130
1737823387.117422,-138
1737823387.122422,-129
1737823387.127422,-116
1737823387.132422,-113
1737823387.137422,-122
1737823387.142422,-128
1737823387.147422,-132
1737823387.152422,-135
1737823387.157422,-121
1737823387.162422,-89
1737823387.167422,-58
1737823387.172422,-61
1737823387.177422,-70
1737823387.182422,-67
1737823387.187422,-55
1737823387.1928449,-66
1737823387.1978447,-103
1737823387.2028449,-124
1737823387.2078447,-133
1737823387.2128448,-151
1737823387.2178447,-176
1737823387.2228448,-172
1737823387.2278447,-137
1737823387.2328448,-110
1737823387.2378447,-121
1737823387.2428448,-152
1737823387.2478447,-146
1737823387.2528448,-91
1737823387.2578447,-44
1737823387.2628448,-52
1737823387.267845,-104
1737823387.2732675,-153
1737823387.2782676,-163
1737823387.2832675,-146
1737823387.2882676,-139
1737823387.2932675,-155
1737823387.2982676,-156
1737823387.3032677,-126
1737823387.3082676,-95
1737823387.3132677,-86
1737823387.3182676,-87
1737823387.3232677,-102
1737823387.3282676,-134
1737823387.3332677,-160
1737823387.3382676,-151
1737823387.3432677,-111
1737823387.3482676,-79
1737823387.3536904,-88
1737823387.3586905,-104
1737823387.3636904,-85
1737823387.3686905,-66
1737823387.3736904,-91
1737823387.3786905,-127
1737823387.3836904,-131
1737823387.3886905,-118
1737823387.3936903,-116
1737823387.3986905,-130
1737823387.4036903,-135
1737823387.4086905,-124
1737823387.4136903,-120
1737823387.4186904,-138
1737823387.4236903,-151
1737823387.4286904,-148
1737823387.4341133,-152
1737823387.4391131,-161
1737823387.4441133,-153
1737823387.4491131,-126
1737823387.4541132,-109
1737823387.4591131,-114
1737823387.4641132,-136
1737823387.469113,-152
1737823387.4741132,-164
1737823387.479113,-174
1737823387.4841132,-169
1737823387.489113,-135
1737823387.4941132,-92
1737823387.499113,-80
1737823387.5041132,-100
1737823387.5091133,-113
1737823387.514536,-96
1737823387.519536,-88
1737823387.524536,-123
1737823387.529536,-196
1737823387.534536,-235
1737823387.539536,-203
1737823387.544536,-138
1737823387.549536,-94
1737823387.554536,-86
1737823387.559536,-107
1737823387.564536,-153
1737823387.569536,-195
1737823387.574536,-191
1737823387.579536,-147
1737823387.584536,-120
1737823387.589536,-132
1737823387.5949588,-168
1737823387.599959,-188
1737823387.6049588,-186
1737823387.609959,-167
1737823387.6149588,-150
1737823387.6199589,-146
1737823387.6249588,-149
1737823387.6299589,-134
1737823387.6349587,-103
1737823387.6399589,-86
1737823387.6449587,-100
1737823387.6499588,-112
1737823387.6549587,-109
1737823387.6599588,-103
1737823387.6649587,-120
1737823387.6699588,-154
1737823387.6753817,-164
1737823387.6803815,-138
1737823387.6853817,-103
1737823387.6903815,-93
1737823387.6953816,-122
1737823387.7003815,-164
1737823387.7053816,-175
1737823387.7103815,-161
1737823387.7153816,-159
1737823387.7203815,-178
1737823387.7253816,-182
1737823387.7303815,-147
1737823387.7353816,-106
1737823387.7403817,-90
1737823387.7453816,-94
1737823387.7503817,-105
1737823387.7558043,-119
1737823387.7608044,-132
1737823387.7658043,-152
1737823387.7708044,-173
1737823387.7758043,-180
1737823387.7808044,-155
1737823387.7858045,-117
1737823387.7908044,-92
1737823387.7958045,-90
1737823387.8008044,-96
1737823387.8058045,-103
1737823387.8108044,-117
1737823387.8158045,-145
1737823387.8208044,-163
1737823387.8258045,-161
1737823387.8308043,-148
1737823387.8362272,-118
1737823387.8412273,-83
1737823387.8462272,-81
1737823387.8512273,-119
1737823387.8562272,-147
1737823387.8612273,-129
1737823387.8662271,-111
1737823387.8712273,-141
1737823387.8762271,-194
1737823387.8812273,-219
1737823387.8862271,-194
1737823387.8912272,-144
1737823387.8962271,-98
1737823387.9012272,-79
1737823387.906227,-97
1737823387.9112272,-155
1737823387.91665,-206
1737823387.92165,-209
1737823387.92665,-174
1737823387.93165,-147
1737823387.93665,-142
1737823387.94165,-146
1737823387.94665,-142
1737823387.95165,-119
1737823387.95665,-104
1737823387.96165,-101
1737823387.96665,-100
1737823387.97165,-99
1737823387.97665,-111
1737823387.98165,-141
1737823387.98665,-163
1737823387.99165,-150
1737823387.9970727,-122
1737823388.0020728,-114
1737823388.0070727,-127
1737823388.0120728,-118
1737823388.017073,-92
1737823388.0220728,-94
1737823388.027073,-143
1737823388.0320728,-196
1737823388.037073,-215
1737823388.0420728,-182
1737823388.047073,-118
1737823388.0520728,-82
1737823388.0570729,-90
1737823388.0620728,-113
1737823388.0670729,-136
1737823388.0720727,-145
1737823388.0774953,-133
1737823388.0824955,-112
1737823388.0874953,-102
1737823388.0924954,-114
1737823388.0974953,-139
1737823388.1024954,-144
1737823388.1074953,-114
1737823388.1124954,-82
1737823388.1174953,-74
1737823388.1224954,-86
1737823388.1274953,-103
1737823388.1324954,-102
1737823388.1374955,-78
1737823388.1424954,-48
1737823388.1474955,-50
1737823388.1524954,-95
1737823388.1579182,-135
1737823388.162918,-137
1737823388.1679182,-117
1737823388.172918,-111
1737823388.1779182,-111
1737823388.1829183,-96
1737823388.1879182,-70
1737823388.1929183,-76
1737823388.1979182,-113
1737823388.2029183,-142
1737823388.2079182,-130
1737823388.2129183,-106
1737823388.2179182,-112
1737823388.2229183,-131
1737823388.2279181,-116
1737823388.2329183,-82
1737823388.238341,-65
1737823388.243341,-81
1737823388.248341,-101
1737823388.253341,-95
1737823388.258341,-81
1737823388.263341,-79
1737823388.268341,-74
1737823388.273341,-58
1737823388.278341,-59
1737823388.283341,-103
1737823388.288341,-147
1737823388.293341,-137
1737823388.298341,-80
1737823388.303341,-37
1737823388.308341,-56
1737823388.313341,-114
1737823388.3187637,-152
1737823388.3237638,-151
1737823388.3287637,-132
1737823388.3337638,-107
1737823388.3387637,-82
1737823388.3437638,-63
1737823388.3487637,-64
1737823388.3537638,-82
1737823388.3587637,-105
1737823388.3637638,-111
1737823388.3687637,-103
1737823388.3737638,-96
1737823388.378764,-108
1737823388.3837638,-128
1737823388.388764,-154
1737823388.3937638,-154
1737823388.3991866,-135
1737823388.4041865,-121
1737823388.4091866,-124
1737823388.4141867,-117
1737823388.4191866,-98
1737823388.4241867,-90
1737823388.4291866,-108
1737823388.4341867,-130
1737823388.4391866,-137
1737823388.4441867,-138
1737823388.4491866,-142
1737823388.4541867,-136
1737823388.4591866,-127
1737823388.4641867,-133
1737823388.4691865,-148
1737823388.4741867,-138
1737823388.4796095,-105
1737823388.4846094,-102
1737823388.4896095,-137
1737823388.4946094,-162
1737823388.4996095,-154
1737823388.5046093,-143
1737823388.5096095,-148
1737823388.5146093,-141
1737823388.5196095,-100
1737823388.5246093,-61
1737823388.5296094,-53
1737823388.5346093,-77
1737823388.5396094,-97
1737823388.5446093,-109
1737823388.5496094,-137
1737823388.5546093,-168
1737823388.560032,-166
1737823388.565032,-138
1737823388.570032,-133
1737823388.575032,-150
1737823388.580032,-147
1737823388.585032,-121
1737823388.590032,-103
1737823388.595032,-99
1737823388.600032,-88
1737823388.605032,-58
1737823388.610032,-41
1737823388.615032,-63
1737823388.620032,-85
1737823388.625032,-75
1737823388.630032,-58
1737823388.635032,-80
1737823388.6404548,-123
1737823388.645455,-143
1737823388.6504548,-137
1737823388.6554549,-122
1737823388.6604548,-106
1737823388.6654549,-107
1737823388.6704547,-127
1737823388.6754549,-132
1737823388.6804547,-115
1737823388.6854548,-84
1737823388.6904547,-82
1737823388.6954548,-101
1737823388.7004547,-117
1737823388.7054548,-103
1737823388.7104547,-85
1737823388.7154548,-90
1737823388.7208776,-109
1737823388.7258775,-133
1737823388.7308776,-152
1737823388.7358775,-147
1737823388.7408776,-135
1737823388.7458775,-158
1737823388.7508776,-198
1737823388.7558775,-194
1737823388.7608776,-143
1737823388.7658775,-91
1737823388.7708776,-80
1737823388.7758777,-104
1737823388.7808776,-121
1737823388.7858777,-128
1737823388.7908776,-139
1737823388.7958777,-140
1737823388.8013003,-121
1737823388.8063004,-99
1737823388.8113005,-103
1737823388.8163004,-126
1737823388.8213005,-149
1737823388.8263004,-149
1737823388.8313005,-123
1737823388.8363004,-92
1737823388.8413005,-76
1737823388.8463004,-73
1737823388.8513005,-93
1737823388.8563004,-124
1737823388.8613005,-154
1737823388.8663003,-155
1737823388.8713005,-115
1737823388.8763003,-81
1737823388.8817232,-96
1737823388.8867233,-125
1737823388.8917232,-122
1737823388.8967233,-87
1737823388.9017231,-75
1737823388.9067233,-100
1737823388.9117231,-125
1737823388.9167233,-100
1737823388.9217231,-45
1737823388.9267232,-10
1737823388.931723,-34
1737823388.9367232,-84
1737823388.941723,-108
1737823388.9467232,-84
1737823388.951723,-61
1737823388.9567232,-88
1737823388.962146,-142
1737823388.967146,-163
1737823388.972146,-124
1737823388.977146,-84
1737823388.982146,-78
1737823388.987146,-101
1737823388.992146,-125
1737823388.997146,-138
1737823389.002146,-136
1737823389.007146,-112
1737823389.012146,-91
1737823389.017146,-82
1737823389.022146,-89
1737823389.027146,-88
1737823389.032146,-81
1737823389.037146,-99
1737823389.0425687,-130
1737823389.0475688,-130
1737823389.052569,-105
1737823389.0575688,-97
1737823389.062569,-135
1737823389.0675688,-186
1737823389.072569,-197
1737823389.0775688,-150
1737823389.082569,-89
1737823389.0875688,-67
1737823389.0925689,-103
1737823389.0975688,-148
1737823389.1025689,-154
1737823389.1075687,-109
1737823389.1125689,-64
1737823389.1175687,-64
1737823389.1229916,-114
1737823389.1279917,-169
1737823389.1329916,-189
1737823389.1379917,-162
1737823389.1429915,-113
1737823389.1479917,-89
1737823389.1529915,-107
1737823389.1579916,-146
1737823389.1629915,-162
1737823389.1679916,-137
1737823389.1729915,-102
1737823389.1779916,-84
1737823389.1829915,-89
1737823389.1879916,-99
1737823389.1929915,-123
1737823389.1979916,-151
1737823389.2034144,-152
1737823389.2084143,-119
1737823389.2134144,-85
1737823389.2184143,-88
1737823389.2234144,-105
1737823389.2284143,-102
1737823389.2334144,-83
1737823389.2384143,-89
1737823389.2434144,-121
1737823389.2484145,-122
1737823389.2534144,-84
1737823389.2584145,-50
1737823389.2634144,-68
1737823389.2684145,-118
1737823389.2734144,-150
1737823389.2784145,-158
1737823389.2838373,-165
1737823389.2888372,-166
1737823389.2938373,-149
1737823389.2988372,-114
1737823389.3038373,-78
1737823389.3088372,-77
1737823389.3138373,-110
1737823389.3188372,-137
1737823389.3238373,-123
1737823389.3288372,-75
1737823389.3338373,-24
1737823389.3388371,-23
1737823389.3438373,-61
1737823389.3488371,-96
1737823389.3538373,-95
1737823389.3588371,-83
1737823389.36426,-89
1737823389.36926,-107
1737823389.37426,-110
1737823389.37926,-94
1737823389.38426,-86
1737823389.38926,-113
1737823389.39426,-149
1737823389.39926,-145
1737823389.40426,-116
1737823389.40926,-106
1737823389.41426,-103
1737823389.41926,-87
1737823389.42426,-81
1737823389.42926,-110
1737823389.43426,-139
1737823389.43926,-123
1737823389.4446828,-90
1737823389.4496827,-68
1737823389.4546828,-83
1737823389.4596827,-118
1737823389.4646828,-134
1737823389.4696827,-113
1737823389.4746828,-70
1737823389.4796827,-52
1737823389.4846828,-66
1737823389.489683,-80
1737823389.4946828,-81
1737823389.499683,-83
1737823389.5046828,-104
1737823389.509683,-110
1737823389.5146828,-88
1737823389.519683,-70
1737823389.5251057,-82
1737823389.5301056,-97
1737823389.5351057,-93
1737823389.5401056,-98
1737823389.5451057,-114
1737823389.5501056,-128
1737823389.5551057,-129
1737823389.5601056,-143
1737823389.5651057,-177
1737823389.5701056,-215
1737823389.5751057,-206
1737823389.5801055,-160
1737823389.5851057,-125
1737823389.5901055,-124
1737823389.5951056,-120
1737823389.6001055,-88
1737823389.6055284,-42
1737823389.6105285,-53
1737823389.6155283,-121
1737823389.6205285,-174
1737823389.6255283,-157
1737823389.6305285,-105
1737823389.6355283,-81
1737823389.6405284,-75
1737823389.6455283,-56
1737823389.6505284,-39
1737823389.6555283,-62
1737823389.6605284,-116
1737823389.6655283,-145
1737823389.6705284,-127
1737823389.6755283,-95
1737823389.6805284,-74
1737823389.6859512,-81
1737823389.690951,-112
1737823389.6959512,-149
1737823389.700951,-166
1737823389.7059512,-167
1737823389.710951,-161
1737823389.7159512,-160
1737823389.7209513,-155
1737823389.7259512,-154
1737823389.7309513,-160
1737823389.7359512,-163
1737823389.7409513,-152
1737823389.7459512,-132
1737823389.7509513,-112
1737823389.7559512,-78
1737823389.7609513,-44
1737823389.766374,-50
1737823389.771374,-100
1737823389.776374,-136
1737823389.781374,-114
1737823389.786374,-80
1737823389.791374,-82
1737823389.796374,-109
1737823389.801374,-107
1737823389.806374,-86
1737823389.811374,-89
1737823389.816374,-121
1737823389.821374,-140
1737823389.826374,-125
1737823389.831374,-99
1737823389.836374,-91
1737823389.841374,-100
1737823389.8467968,-109
1737823389.8517969,-120
1737823389.8567967,-151
1737823389.8617969,-168
1737823389.8667967,-149
1737823389.8717968,-129
1737823389.8767967,-145
1737823389.8817968,-181
1737823389.8867967,-192
1737823389.8917968,-178
1737823389.8967967,-156
1737823389.9017968,-147
1737823389.9067967,-136
1737823389.9117968,-115
1737823389.9167967,-117
1737823389.9217968,-147
1737823389.9272194,-164
1737823389.9322195,-132
1737823389.9372194,-95
1737823389.9422195,-97
1737823389.9472194,-129
1737823389.9522195,-141
1737823389.9572194,-114
1737823389.9622195,-65
1737823389.9672194,-39
1737823389.9722195,-53
1737823389.9772193,-90
1737823389.9822195,-142
1737823389.9872193,-175
1737823389.9922194,-163
1737823389.9972193,-127
1737823390.0022194,-114
1737823390.0076423,-128
1737823390.0126421,-138
1737823390.0176423,-128
1737823390.0226421,-122
1737823390.0276423,-135
1737823390.0326421,-154
1737823390.0376422,-156
1737823390.042642,-146
1737823390.0476422,-126
1737823390.052642,-115
1737823390.0576422,-112
1737823390.062642,-123
1737823390.0676422,-122
1737823390.072642,-106
1737823390.0776422,-107
1737823390.0826423,-127
1737823390.088065,-139
1737823390.093065,-129
1737823390.098065,-107
1737823390.103065,-106
1737823390.108065,-119
1737823390.113065,-127
1737823390.118065,-123
1737823390.123065,-136
1737823390.128065,-155
1737823390.133065,-162
1737823390.138065,-152
1737823390.143065,-137
1737823390.148065,-129
1737823390.153065,-132
1737823390.158065,-143
1737823390.163065,-160
1737823390.1684878,-178
1737823390.173488,-182
1737823390.1784878,-163
1737823390.183488,-134
1737823390.1884878,-118
1737823390.193488,-108
1737823390.1984878,-113
1737823390.2034879,-130
1737823390.2084877,-131
1737823390.2134879,-105
1737823390.2184877,-80
1737823390.2234879,-93
1737823390.2284877,-134
1737823390.2334878,-149
1737823390.2384877,-130
1737823390.2434878,-109
1737823390.2489107,-117
1737823390.2539105,-124
1737823390.2589107,-103
1737823390.2639105,-80
1737823390.2689106,-82
1737823390.2739105,-119
1737823390.2789106,-158
1737823390.2839105,-158
1737823390.2889106,-122
1737823390.2939105,-89
1737823390.2989106,-95
1737823390.3039105,-124
1737823390.3089106,-123
1737823390.3139105,-91
1737823390.3189106,-68
1737823390.3239107,-68
1737823390.3293333,-82
1737823390.3343334,-91
1737823390.3393333,-91
1737823390.3443334,-77
1737823390.3493333,-68
1737823390.3543334,-91
1737823390.3593335,-145
1737823390.3643334,-172
1737823390.3693335,-139
1737823390.3743334,-98
1737823390.3793335,-96
1737823390.3843334,-97
1737823390.3893335,-61
1737823390.3943334,-34
1737823390.3993335,-68
1737823390.4043334,-144
1737823390.409756,-178
1737823390.414756,-154
1737823390.419756,-111
1737823390.424756,-106
1737823390.429756,-122
1737823390.434756,-135
1737823390.439756,-137
1737823390.444756,-128
1737823390.449756,-101
1737823390.454756,-80
1737823390.459756,-77
1737823390.464756,-100
1737823390.469756,-125
1737823390.474756,-134
1737823390.479756,-128
1737823390.484756,-115
1737823390.4901788,-93
1737823390.4951787,-74
1737823390.5001788,-59
1737823390.5051787,-61
1737823390.5101788,-72
1737823390.515179,-71
1737823390.5201788,-53
1737823390.525179,-61
1737823390.5301788,-99
1737823390.535179,-149
1737823390.5401788,-171
1737823390.545179,-155
1737823390.5501788,-127
1737823390.5551789,-117
1737823390.5601788,-120
1737823390.5651789,-111
1737823390.5706017,-91
1737823390.5756016,-71
1737823390.5806017,-64
1737823390.5856016,-83
1737823390.5906017,-120
1737823390.5956016,-154
1737823390.6006017,-156
1737823390.6056015,-130
1737823390.6106017,-86
1737823390.6156015,-61
1737823390.6206017,-73
1737823390.6256015,-87
1737823390.6306016,-79
1737823390.6356015,-65
1737823390.6406016,-71
1737823390.6456015,-100
1737823390.6510243,-118
1737823390.6560245,-104
1737823390.6610243,-80
1737823390.6660244,-82
1737823390.6710243,-90
1737823390.6760244,-86
1737823390.6810243,-84
1737823390.6860244,-101
1737823390.6910243,-119
1737823390.6960244,-114
1737823390.7010243,-89
1737823390.7060244,-79
1737823390.7110243,-89
1737823390.7160244,-87
1737823390.7210245,-71
1737823390.7260244,-71
1737823390.7314472,-89
1737823390.736447,-99
1737823390.7414472,-84
1737823390.746447,-70
1737823390.7514472,-90
1737823390.7564473,-127
1737823390.7614472,-123
1737823390.7664473,-67
1737823390.7714472,-18
1737823390.7764473,-17
1737823390.7814472,-55
1737823390.7864473,-90
1737823390.7914472,-93
1737823390.7964473,-87
1737823390.8014472,-79
1737823390.8064473,-83
1737823390.81187,-96
1737823390.81687,-114
1737823390.82187,-115
1737823390.82687,-100
1737823390.83187,-85
1737823390.83687,-65
1737823390.84187,-48
1737823390.84687,-75
1737823390.85187,-113
1737823390.85687,-137
1737823390.86187,-130
1737823390.86687,-105
1737823390.87187,-90
1737823390.87687,-96
1737823390.88187,-117
1737823390.88687,-140
1737823390.8922927,-132
1737823390.8972929,-79
1737823390.9022927,-40
1737823390.9072928,-75
1737823390.9122927,-146
1737823390.9172928,-172
1737823390.9222927,-141
1737823390.9272928,-94
1737823390.9322927,-70
1737823390.9372928,-76
1737823390.9422927,-78
1737823390.9472928,-73
1737823390.952293,-84
1737823390.9572928,-98
1737823390.962293,-98
1737823390.9672928,-86
1737823390.9727156,-67
1737823390.9777155,-47
1737823390.9827156,-47
1737823390.9877155,-69
1737823390.9927156,-96
1737823390.9977157,-115
1737823391.0027156,-119
1737823391.0077157,-122
1737823391.0127156,-135
1737823391.0177157,-131
1737823391.0227156,-103
1737823391.0277157,-86
1737823391.0327156,-107
1737823391.0377157,-128
1737823391.0427155,-119
1737823391.0477157,-114
1737823391.0531385,-141
1737823391.0581384,-160
1737823391.0631385,-132
1737823391.0681384,-79
1737823391.0731385,-55
1737823391.0781384,-84
1737823391.0831385,-123
1737823391.0881383,-145
1737823391.0931385,-163
1737823391.0981383,-178
1737823391.1031384,-158
1737823391.1081383,-112
1737823391.1131384,-89
1737823391.1181383,-114
1737823391.1231384,-138
1737823391.1281383,-131
1737823391.1335611,-98
1737823391.1385612,-70
1737823391.1435611,-80
1737823391.1485612,-107
1737823391.153561,-127
1737823391.1585612,-115
1737823391.163561,-80
1737823391.1685612,-57
1737823391.173561,-84
1737823391.1785612,-137
1737823391.183561,-150
1737823391.1885612,-117
1737823391.1935613,-79
1737823391.1985612,-61
1737823391.2035613,-69
1737823391.2085612,-89
1737823391.213984,-93
1737823391.218984,-70
1737823391.223984,-41
1737823391.228984,-33
1737823391.233984,-54
1737823391.238984,-68
1737823391.243984,-47
1737823391.248984,-21
1737823391.253984,-23
1737823391.258984,-47
1737823391.263984,-69
1737823391.268984,-86
1737823391.273984,-96
1737823391.278984,-92
1737823391.283984,-69
1737823391.288984,-55
1737823391.294407,-83
1737823391.2994068,-124
1737823391.304407,-139
1737823391.3094068,-119
1737823391.3144069,-98
1737823391.3194067,-88
1737823391.3244069,-89
1737823391.3294067,-95
1737823391.3344069,-110
1737823391.3394067,-137
1737823391.3444068,-151
1737823391.3494067,-142
1737823391.3544068,-128
1737823391.3594067,-116
1737823391.3644068,-99
1737823391.3694067,-71
1737823391.3748295,-59
1737823391.3798296,-86
1737823391.3848295,-114
1737823391.3898296,-124
1737823391.3948295,-104
1737823391.3998296,-88
1737823391.4048295,-112
1737823391.4098296,-162
1737823391.4148295,-202
1737823391.4198296,-189
1737823391.4248295,-146
1737823391.4298296,-110
1737823391.4348297,-112
1737823391.4398296,-124
1737823391.4448297,-113
1737823391.4498296,-102
1737823391.4552524,-119
1737823391.4602523,-145
1737823391.4652524,-157
1737823391.4702525,-142
1737823391.4752524,-114
1737823391.4802525,-100
1737823391.4852524,-107
1737823391.4902525,-129
1737823391.4952524,-153
1737823391.5002525,-155
1737823391.5052524,-118
1737823391.5102525,-85
1737823391.5152524,-103
1737823391.5202525,-154
1737823391.5252523,-165
1737823391.5302525,-123
1737823391.5356753,-85
1737823391.5406752,-90
1737823391.5456753,-131
1737823391.5506752,-159
1737823391.5556753,-147
1737823391.5606751,-126
1737823391.5656753,-113
1737823391.5706751,-106
1737823391.5756752,-105
1737823391.5806751,-119
1737823391.5856752,-133
1737823391.590675,-132
1737823391.5956752,-112
1737823391.600675,-98
1737823391.6056752,-117
1737823391.610675,-155
1737823391.616098,-158
1737823391.621098,-121
1737823391.626098,-89
1737823391.631098,-88
1737823391.636098,-120
1737823391.641098,-134
1737823391.646098,-126
1737823391.651098,-107
1737823391.656098,-112
1737823391.661098,-143
1737823391.666098,-162
1737823391.671098,-134
1737823391.676098,-83
1737823391.681098,-77
1737823391.686098,-109
1737823391.691098,-118
1737823391.6965208,-84
1737823391.7015207,-49
1737823391.7065208,-53
1737823391.711521,-89
1737823391.7165208,-102
1737823391.721521,-94
1737823391.7265208,-97
1737823391.731521,-128
1737823391.7365208,-171
1737823391.741521,-186
1737823391.7465208,-165
1737823391.7515209,-133
1737823391.7565207,-111
1737823391.7615209,-102
1737823391.7665207,-110
1737823391.7715209,-134
1737823391.7769434,-169
1737823391.7819433,-186
1737823391.7869434,-165
1737823391.7919433,-131
1737823391.7969434,-123
1737823391.8019433,-139
1737823391.8069434,-156
1737823391.8119433,-154
1737823391.8169434,-127
1737823391.8219433,-107
1737823391.8269434,-100
1737823391.8319435,-93
1737823391.8369434,-87
1737823391.8419435,-77
1737823391.8469434,-63
1737823391.8519435,-50
1737823391.857366,-51
1737823391.8623662,-88
1737823391.8673663,-140
1737823391.8723662,-179
1737823391.8773663,-171
1737823391.8823662,-131
1737823391.8873663,-103
1737823391.8923662,-110
1737823391.8973663,-152
1737823391.9023662,-183
1737823391.9073663,-164
1737823391.9123662,-117
1737823391.9173663,-79
1737823391.9223661,-72
1737823391.9273663,-102
1737823391.9323661,-148
1737823391.937789,-155
1737823391.942789,-112
1737823391.947789,-82
1737823391.952789,-98
1737823391.957789,-146
1737823391.962789,-160
1737823391.967789,-115
1737823391.972789,-66
1737823391.977789,-61
1737823391.982789,-85
1737823391.987789,-89
1737823391.992789,-74
1737823391.997789,-60
1737823392.002789,-63
1737823392.007789,-98
1737823392.012789,-147
1737823392.0182118,-183
1737823392.0232117,-188
1737823392.0282118,-173
1737823392.0332117,-162
1737823392.0382118,-149
1737823392.0432117,-128
1737823392.0482118,-115
1737823392.0532117,-128
1737823392.0582118,-134
1737823392.063212,-109
1737823392.0682118,-89
1737823392.073212,-81
1737823392.0782118,-78
1737823392.083212,-81
1737823392.0882118,-112
1737823392.093212,-139
1737823392.0986345,-112
1737823392.1036346,-57
1737823392.1086347,-46
1737823392.1136346,-86
1737823392.1186347,-113
1737823392.1236346,-110
1737823392.1286347,-113
1737823392.1336346,-123
1737823392.1386347,-108
1737823392.1436346,-87
1737823392.1486347,-90
1737823392.1536345,-117
1737823392.1586347,-134
1737823392.1636345,-137
1737823392.1686347,-127
1737823392.1736345,-115
1737823392.1790571,-113
1737823392.1840572,-125
1737823392.189057,-132
1737823392.1940572,-118
1737823392.199057,-115
1737823392.2040572,-139
1737823392.209057,-155
1737823392.2140572,-118
1737823392.219057,-76
1737823392.2240572,-90
1737823392.2290573,-128
1737823392.2340572,-125
1737823392.2390573,-104
1737823392.2440572,-111
1737823392.2490573,-144
1737823392.2540572,-153
1737823392.25948,-137
1737823392.26448,-144
1737823392.26948,-189
1737823392.27448,-209
1737823392.27948,-176
1737823392.28448,-118
1737823392.28948,-106
1737823392.29448,-125
1737823392.29948,-141
1737823392.30448,-129
1737823392.30948,-123
1737823392.31448,-131
1737823392.31948,-153
1737823392.32448,-173
1737823392.32948,-178
1737823392.33448,-158
1737823392.3399029,-127
1737823392.3449028,-112
1737823392.3499029,-137
1737823392.3549027,-154
1737823392.3599029,-137
1737823392.3649027,-114
1737823392.3699028,-115
1737823392.3749027,-131
1737823392.3799028,-136
1737823392.3849027,-145
1737823392.3899028,-160
1737823392.3949027,-164
1737823392.3999028,-115
1737823392.4049027,-67
1737823392.4099028,-70
1737823392.4149027,-100
1737823392.4203255,-115
1737823392.4253256,-120
1737823392.4303255,-124
1737823392.4353256,-128
1737823392.4403255,-111
1737823392.4453256,-81
1737823392.4503255,-79
1737823392.4553256,-115
1737823392.4603257,-154
1737823392.4653256,-170
1737823392.4703257,-163
1737823392.4753256,-133
1737823392.4803257,-104
1737823392.4853256,-73
1737823392.4903257,-40
1737823392.4953256,-36
1737823392.5007484,-74
1737823392.5057485,-124
1737823392.5107484,-124
1737823392.5157485,-89
1737823392.5207484,-71
1737823392.5257485,-91
1737823392.5307484,-122
1737823392.5357485,-121
1737823392.5407484,-96
1737823392.5457485,-80
1737823392.5507483,-95
1737823392.5557485,-126
1737823392.5607483,-136
1737823392.5657485,-110
1737823392.5707483,-79
1737823392.5757484,-80
1737823392.5811713,-125
1737823392.5861712,-149
1737823392.5911713,-123
1737823392.5961711,-87
1737823392.6011713,-99
1737823392.6061711,-150
1737823392.6111712,-186
1737823392.6161711,-168
1737823392.6211712,-114
1737823392.626171,-87
1737823392.6311712,-106
1737823392.636171,-124
1737823392.6411712,-112
1737823392.646171,-87
1737823392.6511712,-91
1737823392.656171,-117
1737823392.661594,-133
1737823392.666594,-118
1737823392.671594,-92
1737823392.676594,-78
1737823392.681594,-74
1737823392.686594,-87
1737823392.691594,-96
1737823392.696594,-93
1737823392.701594,-84
1737823392.706594,-96
1737823392.711594,-123
1737823392.716594,-144
1737823392.721594,-148
1737823392.726594,-148
1737823392.731594,-142
1737823392.736594,-127
1737823392.7420168,-95
1737823392.747017,-91
1737823392.7520168,-126
1737823392.757017,-162
1737823392.7620168,-154
1737823392.767017,-118
1737823392.7720168,-106
1737823392.7770169,-128
1737823392.7820168,-143
1737823392.7870169,-120
1737823392.7920167,-105
1737823392.7970169,-127
1737823392.8020167,-160
1737823392.8070168,-159
1737823392.8120167,-140
1737823392.8170168,-147
1737823392.8224397,-186
1737823392.8274395,-180
1737823392.8324397,-114
1737823392.8374395,-60
1737823392.8424397,-69
1737823392.8474395,-111
1737823392.8524396,-117
1737823392.8574395,-79
1737823392.8624396,-51
1737823392.8674395,-89
1737823392.8724396,-147
1737823392.8774395,-170
1737823392.8824396,-142
1737823392.8874395,-101
1737823392.8924396,-79
1737823392.8974397,-93
1737823392.9028623,-110
1737823392.9078624,-121
1737823392.9128623,-115
1737823392.9178624,-105
1737823392.9228623,-83
1737823392.9278624,-61
1737823392.9328623,-44
1737823392.9378624,-59
1737823392.9428625,-100
1737823392.9478624,-147
1737823392.9528625,-162
1737823392.9578624,-137
1737823392.9628625,-105
1737823392.9678624,-92
1737823392.9728625,-96
1737823392.9778624,-113
1737823392.9832852,-153
1737823392.9882853,-200
1737823392.9932852,-207
1737823392.9982853,-151
1737823393.0032852,-90
1737823393.0082853,-80
1737823393.0132852,-107
1737823393.0182853,-120
1737823393.0232852,-97
1737823393.0282853,-70
1737823393.0332851,-57
1737823393.0382853,-59
1737823393.0432851,-82
1737823393.0482852,-115
1737823393.0532851,-132
1737823393.0582852,-112
1737823393.063708,-78
1737823393.068708,-51
1737823393.073708,-52
1737823393.078708,-84
1737823393.083708,-135
1737823393.088708,-164
1737823393.093708,-145
1737823393.098708,-90
1737823393.103708,-50
1737823393.108708,-53
1737823393.113708,-90
1737823393.118708,-135
1737823393.123708,-155
1737823393.128708,-145
1737823393.133708,-120
1737823393.138708,-108
1737823393.1441307,-108
1737823393.1491308,-99
1737823393.1541307,-74
1737823393.1591308,-67
1737823393.1641307,-90
1737823393.1691308,-125
1737823393.174131,-146
1737823393.1791308,-149
1737823393.184131,-144
1737823393.1891308,-144
1737823393.194131,-166
1737823393.1991308,-196
1737823393.204131,-194
1737823393.2091308,-151
1737823393.2141309,-97
1737823393.2191308,-98
1737823393.2245536,-145
1737823393.2295537,-168
1737823393.2345536,-133
1737823393.2395537,-100
1737823393.2445536,-117
1737823393.2495537,-147
1737823393.2545536,-137
1737823393.2595537,-96
1737823393.2645535,-82
1737823393.2695537,-125
1737823393.2745535,-154
1737823393.2795537,-119
1737823393.2845535,-63
1737823393.2895536,-55
1737823393.2945535,-94
1737823393.2995536,-134
1737823393.3049765,-143
1737823393.3099763,-127
1737823393.3149765,-100
1737823393.3199763,-67
1737823393.3249764,-52
1737823393.3299763,-82
1737823393.3349764,-124
1737823393.3399763,-118
1737823393.3449764,-60
1737823393.3499763,-19
1737823393.3549764,-39
1737823393.3599763,-81
1737823393.3649764,-92
1737823393.3699763,-88
1737823393.3749764,-96
1737823393.3799765,-112
1737823393.385399,-103
1737823393.3903992,-79
1737823393.395399,-73
1737823393.4003992,-89
1737823393.405399,-109
1737823393.4103992,-126
1737823393.4153993,-158
1737823393.4203992,-187
1737823393.4253993,-177
1737823393.4303992,-114
1737823393.4353993,-57
1737823393.4403992,-52
1737823393.4453993,-80
1737823393.4503992,-95
1737823393.4553993,-107
1737823393.4603992,-141
1737823393.465822,-174
1737823393.470822,-173
1737823393.475822,-145
1737823393.480822,-121
1737823393.485822,-130
1737823393.490822,-141
1737823393.495822,-139
1737823393.500822,-127
1737823393.505822,-111
1737823393.510822,-73
1737823393.515822,-35
1737823393.520822,-29
1737823393.525822,-68
1737823393.530822,-111
1737823393.535822,-128
1737823393.540822,-125
1737823393.5462446,-122
1737823393.5512445,-114
1737823393.5562446,-98
1737823393.5612445,-95
1737823393.5662446,-115
1737823393.5712447,-139
1737823393.5762446,-152
1737823393.5812447,-154
1737823393.5862446,-140
1737823393.5912447,-134
1737823393.5962446,-149
1737823393.6012447,-180
1737823393.6062446,-200
1737823393.6112447,-173
1737823393.6162446,-107
1737823393.6212447,-52
1737823393.6266675,-40
1737823393.6316674,-75
1737823393.6366675,-126
1737823393.6416674,-158
1737823393.6466675,-163
1737823393.6516674,-163
1737823393.6566675,-154
1737823393.6616673,-127
1737823393.6666675,-101
1737823393.6716673,-98
1737823393.6766675,-117
1737823393.6816673,-129
1737823393.6866674,-122
1737823393.6916673,-115
1737823393.6966674,-112
1737823393.7016673,-92
1737823393.7070901,-64
1737823393.7120903,-60
1737823393.7170901,-91
1737823393.7220902,-130
1737823393.7270901,-137
1737823393.7320902,-108
1737823393.73709,-77
1737823393.7420902,-63
1737823393.74709,-63
1737823393.7520902,-71
1737823393.75709,-109
1737823393.7620902,-146
1737823393.76709,-158
1737823393.7720902,-139
1737823393.7770903,-111
1737823393.7820902,-104
1737823393.787513,-120
1737823393.792513,-137
1737823393.797513,-134
1737823393.802513,-107
1737823393.807513,-76
1737823393.812513,-77
1737823393.817513,-118
1737823393.822513,-146
1737823393.827513,-136
1737823393.832513,-100
1737823393.837513,-83
1737823393.842513,-104
1737823393.847513,-136
1737823393.852513,-149
1737823393.857513,-150
1737823393.862513,-145
1737823393.867936,-141
1737823393.8729358,-141
1737823393.877936,-140
1737823393.8829358,-131
1737823393.8879359,-121
1737823393.8929358,-108
1737823393.8979359,-102
1737823393.9029357,-101
1737823393.9079359,-102
1737823393.9129357,-100
1737823393.9179358,-107
1737823393.9229357,-112
1737823393.9279358,-114
1737823393.9329357,-105
1737823393.9379358,-98
1737823393.9429357,-99
1737823393.9483585,-115
1737823393.9533587,-129
1737823393.9583585,-129
1737823393.9633586,-125
1737823393.9683585,-117
1737823393.9733586,-113
1737823393.9783585,-120
1737823393.9833586,-129
1737823393.9883585,-130
1737823393.9933586,-96
1737823393.9983585,-58
1737823394.0033586,-50
1737823394.0083587,-72
1737823394.0133586,-79
1737823394.0183587,-53
1737823394.0233586,-51
1737823394.0287812,-103
1737823394.0337813,-151
1737823394.0387812,-123
1737823394.0437813,-43
1737823394.0487812,-7
1737823394.0537813,-55
1737823394.0587811,-124
1737823394.0637813,-139
1737823394.0687811,-103
1737823394.0737813,-86
1737823394.0787811,-107
1737823394.0837812,-147
1737823394.088781,-166
1737823394.0937812,-139
1737823394.098781,-95
1737823394.1037812,-80
1737823394.109204,-108
1737823394.114204,-146
1737823394.119204,-141
1737823394.124204,-97
1737823394.129204,-81
1737823394.134204,-116
1737823394.139204,-145
1737823394.144204,-121
1737823394.149204,-68
1737823394.154204,-54
1737823394.159204,-84
1737823394.164204,-109
1737823394.169204,-106
1737823394.174204,-104
1737823394.179204,-131
1737823394.184204,-160
1737823394.1896267,-152
1737823394.1946268,-112
1737823394.1996267,-63
1737823394.2046268,-39
1737823394.209627,-45
1737823394.2146268,-80
1737823394.219627,-127
1737823394.2246268,-152
1737823394.229627,-141
1737823394.2346268,-116
1737823394.239627,-98
1737823394.2446268,-98
1737823394.2496269,-103
1737823394.2546268,-110
1737823394.2596269,-102
1737823394.2646267,-83
1737823394.2700496,-75
1737823394.2750497,-89
1737823394.2800496,-102
1737823394.2850497,-109
1737823394.2900496,-102
1737823394.2950497,-91
1737823394.3000495,-88
1737823394.3050497,-94
1737823394.3100495,-99
1737823394.3150496,-110
1737823394.3200495,-103
1737823394.3250496,-79
1737823394.3300495,-71
1737823394.3350496,-88
1737823394.3400495,-107
1737823394.3450496,-121
1737823394.3504725,-119
1737823394.3554723,-110
1737823394.3604724,-100
1737823394.3654723,-95
1737823394.3704724,-99
1737823394.3754723,-123
1737823394.3804724,-147
1737823394.3854723,-152
1737823394.3904724,-142
1737823394.3954723,-123
1737823394.4004724,-112
1737823394.4054725,-122
1737823394.4104724,-130
1737823394.4154725,-108
1737823394.4204724,-74
1737823394.4254725,-64
1737823394.430895,-88
1737823394.4358952,-99
1737823394.4408953,-66
1737823394.4458952,-41
1737823394.4508953,-69
1737823394.4558952,-105
1737823394.4608953,-113
1737823394.4658952,-115
1737823394.4708953,-121
1737823394.4758952,-120
1737823394.4808953,-101
1737823394.4858952,-93
1737823394.4908953,-124
1737823394.4958951,-161
1737823394.5008953,-164
1737823394.5058951,-139
1737823394.511318,-126
1737823394.516318,-123
1737823394.521318,-112
1737823394.526318,-98
1737823394.531318,-88
1737823394.536318,-79
1737823394.541318,-74
1737823394.546318,-63
1737823394.551318,-56
1737823394.556318,-78
1737823394.561318,-119
1737823394.566318,-134
1737823394.571318,-121
1737823394.576318,-93
1737823394.581318,-80
1737823394.586318,-90
1737823394.5917408,-117
1737823394.5967407,-146
1737823394.6017408,-160
1737823394.6067407,-142
1737823394.6117408,-108
1737823394.6167407,-92
1737823394.6217408,-101
1737823394.6267407,-129
1737823394.6317408,-161
1737823394.6367407,-184
1737823394.6417408,-185
1737823394.646741,-146
1737823394.6517408,-97
1737823394.656741,-74
1737823394.6617408,-76
1737823394.666741,-97
1737823394.6721635,-128
1737823394.6771636,-139
1737823394.6821637,-129
1737823394.6871636,-138
1737823394.6921637,-168
1737823394.6971636,-170
1737823394.7021637,-140
1737823394.7071636,-112
1737823394.7121637,-121
1737823394.7171636,-153
1737823394.7221637,-186
1737823394.7271636,-199
1737823394.7321637,-187
1737823394.7371635,-133
1737823394.7421637,-77
1737823394.7471635,-68
1737823394.7525864,-93
1737823394.7575865,-91
1737823394.7625864,-73
1737823394.7675865,-78
1737823394.7725863,-90
1737823394.7775865,-71
1737823394.7825863,-48
1737823394.7875865,-66
1737823394.7925863,-126
1737823394.7975864,-158
1737823394.8025863,-131
1737823394.8075864,-82
1737823394.8125863,-63
1737823394.8175864,-81
1737823394.8225863,-109
1737823394.8275864,-111
1737823394.8330092,-82
1737823394.838009,-71
1737823394.8430092,-93
1737823394.848009,-99
1737823394.8530092,-69
1737823394.858009,-47
1737823394.8630092,-68
1737823394.868009,-112
1737823394.8730092,-124
1737823394.878009,-99
1737823394.8830092,-93
1737823394.8880093,-106
1737823394.8930092,-111
1737823394.8980093,-109
1737823394.9030092,-119
1737823394.9080093,-135
1737823394.913432,-129
1737823394.918432,-109
1737823394.923432,-86
1737823394.928432,-57
1737823394.933432,-30
1737823394.938432,-7
1737823394.943432,-30
1737823394.948432,-88
1737823394.953432,-144
1737823394.958432,-167
1737823394.963432,-146
1737823394.968432,-93
1737823394.973432,-53
1737823394.978432,-76
1737823394.983432,-145
1737823394.988432,-184
1737823394.9938548,-155
1737823394.9988549,-98
1737823395.0038548,-76
1737823395.0088549,-104
1737823395.0138547,-143
1737823395.0188549,-155
1737823395.0238547,-145
1737823395.0288548,-127
1737823395.0338547,-106
1737823395.0388548,-93
1737823395.0438547,-101
1737823395.0488548,-120
1737823395.0538547,-135
1737823395.0588548,-128
1737823395.0638547,-109
1737823395.0688548,-101
1737823395.0742776,-112
1737823395.0792775,-114
1737823395.0842776,-110
1737823395.0892775,-110
1737823395.0942776,-97
1737823395.0992775,-66
1737823395.1042776,-49
1737823395.1092775,-56
1737823395.1142776,-73
1737823395.1192777,-77
1737823395.1242776,-66
1737823395.1292777,-66
1737823395.1342776,-84
1737823395.1392777,-100
1737823395.1442776,-104
1737823395.1492777,-112
1737823395.1547005,-104
1737823395.1597004,-78
1737823395.1647005,-78
1737823395.1697004,-120
1737823395.1747005,-155
1737823395.1797004,-140
1737823395.1847005,-107
1737823395.1897004,-115
1737823395.1947005,-153
1737823395.1997004,-152
1737823395.2047005,-103
1737823395.2097003,-66
1737823395.2147005,-81
1737823395.2197003,-112
1737823395.2247005,-110
1737823395.2297003,-79
1737823395.2351232,-60
1737823395.2401233,-85
1737823395.2451231,-128
1737823395.2501233,-133
1737823395.2551231,-83
1737823395.2601233,-29
1737823395.2651231,-16
1737823395.2701232,-40
1737823395.2751231,-71
1737823395.2801232,-87
1737823395.285123,-90
1737823395.2901232,-100
1737823395.295123,-104
1737823395.3001232,-109
1737823395.305123,-106
1737823395.3101232,-110
1737823395.315546,-115
1737823395.320546,-105
1737823395.325546,-85
1737823395.330546,-70
1737823395.335546,-74
1737823395.340546,-90
1737823395.345546,-93
1737823395.350546,-74
1737823395.355546,-77
1737823395.360546,-114
1737823395.365546,-152
1737823395.370546,-159
1737823395.375546,-142
1737823395.380546,-126
1737823395.385546,-125
1737823395.390546,-130
1737823395.3959687,-124
1737823395.4009686,-117
1737823395.4059687,-117
1737823395.4109685,-118
1737823395.4159687,-117
1737823395.4209685,-104
1737823395.4259686,-88
1737823395.4309685,-82
1737823395.4359686,-81
1737823395.4409685,-88
1737823395.4459686,-95
1737823395.4509685,-109
1737823395.4559686,-125
1737823395.4609685,-130
1737823395.4659686,-113
1737823395.4709685,-93
1737823395.4763913,-88
1737823395.4813914,-69
1737823395.4863913,-37
1737823395.4913914,-31
1737823395.4963913,-62
1737823395.5013914,-106
1737823395.5063913,-122
1737823395.5113914,-113
1737823395.5163915,-107
1737823395.5213914,-120
1737823395.5263915,-126
1737823395.5313914,-95
1737823395.5363915,-59
1737823395.5413914,-58
1737823395.5463915,-90
1737823395.5513914,-120
1737823395.5568142,-106
1737823395.5618143,-71
1737823395.5668142,-83
1737823395.5718143,-136
1737823395.5768142,-160
1737823395.5818143,-132
1737823395.5868142,-91
1737823395.5918143,-82
1737823395.5968142,-113
1737823395.6018143,-152
1737823395.6068141,-168
1737823395.6118143,-157
1737823395.6168141,-121
1737823395.6218143,-88
1737823395.6268141,-77
1737823395.6318142,-83
1737823395.637237,-85
1737823395.642237,-94
1737823395.647237,-116
1737823395.652237,-132
1737823395.657237,-115
1737823395.662237,-93
1737823395.667237,-81
1737823395.672237,-82
1737823395.677237,-83
1737823395.682237,-93
1737823395.687237,-122
1737823395.692237,-138
1737823395.697237,-112
1737823395.702237,-77
1737823395.707237,-72
1737823395.712237,-88
1737823395.7176597,-95
1737823395.7226598,-91
1737823395.7276597,-100
1737823395.7326598,-126
1737823395.7376597,-143
1737823395.7426598,-137
1737823395.7476597,-117
1737823395.7526598,-93
1737823395.75766,-70
1737823395.7626598,-51
1737823395.76766,-44
1737823395.7726598,-45
1737823395.77766,-70
1737823395.7826598,-124
1737823395.78766,-174
1737823395.7926598,-180
1737823395.7980826,-149
1737823395.8030827,-117
1737823395.8080826,-110
1737823395.8130827,-114
1737823395.8180826,-122
1737823395.8230827,-133
1737823395.8280826,-147
1737823395.8330827,-141
1737823395.8380826,-114
1737823395.8430827,-94
1737823395.8480825,-98
1737823395.8530827,-117
1737823395.8580825,-134
1737823395.8630826,-140
1737823395.8680825,-138
1737823395.8730826,-123
1737823395.8785052,-101
1737823395.883505,-71
1737823395.8885052,-69
1737823395.893505,-106
1737823395.8985052,-147
1737823395.903505,-160
1737823395.9085052,-156
1737823395.9135053,-149
1737823395.9185052,-144
1737823395.9235053,-137
1737823395.9285052,-121
1737823395.9335053,-115
1737823395.9385052,-135
1737823395.9435053,-145
1737823395.9485052,-115
1737823395.9535053,-74
1737823395.958928,-71
1737823395.963928,-112
1737823395.968928,-143
1737823395.973928,-133
1737823395.978928,-97
1737823395.983928,-90
1737823395.988928,-123
1737823395.993928,-158
1737823395.998928,-173
1737823396.003928,-157
1737823396.008928,-112
1737823396.013928,-75
1737823396.018928,-70
1737823396.023928,-102
1737823396.028928,-119
1737823396.033928,-99
1737823396.0393507,-62
1737823396.0443509,-65
1737823396.0493507,-99
1737823396.0543509,-104
1737823396.0593507,-78
1737823396.0643508,-70
1737823396.0693507,-105
1737823396.0743508,-150
1737823396.0793507,-152
1737823396.0843508,-122
1737823396.0893507,-109
1737823396.0943508,-117
1737823396.0993507,-115
1737823396.1043508,-101
1737823396.1093507,-96
1737823396.1143508,-114
1737823396.1197736,-138
1737823396.1247735,-133
1737823396.1297736,-91
1737823396.1347735,-52
1737823396.1397736,-52
1737823396.1447735,-62
1737823396.1497736,-84
1737823396.1547737,-120
1737823396.1597736,-147
1737823396.1647737,-149
1737823396.1697736,-123
1737823396.1747737,-94
1737823396.1797736,-94
1737823396.1847737,-122
1737823396.1897736,-139
1737823396.1947737,-136
1737823396.2001965,-132
1737823396.2051964,-133
1737823396.2101965,-143
1737823396.2151964,-159
1737823396.2201965,-166
1737823396.2251964,-150
1737823396.2301965,-113
1737823396.2351964,-77
1737823396.2401965,-79
1737823396.2451963,-117
1737823396.2501965,-137
1737823396.2551963,-120
1737823396.2601964,-104
1737823396.2651963,-115
1737823396.2701964,-131
1737823396.2751963,-117
1737823396.2806191,-87
1737823396.2856193,-79
1737823396.2906191,-98
1737823396.2956192,-113
1737823396.3006191,-106
1737823396.3056192,-88
1737823396.310619,-83
1737823396.3156192,-91
1737823396.320619,-105
1737823396.3256192,-109
1737823396.330619,-106
1737823396.3356192,-103
1737823396.340619,-94
1737823396.3456192,-77
1737823396.3506193,-64
1737823396.3556192,-61
1737823396.361042,-57
1737823396.366042,-47
1737823396.371042,-57
1737823396.376042,-97
1737823396.381042,-127
1737823396.386042,-114
1737823396.391042,-77
1737823396.396042,-58
1737823396.401042,-78
1737823396.406042,-104
1737823396.411042,-115
1737823396.416042,-106
1737823396.421042,-92
1737823396.426042,-92
1737823396.431042,-97
1737823396.436042,-93
1737823396.441465,-80
1737823396.4464648,-78
1737823396.451465,-96
1737823396.4564648,-109
1737823396.461465,-96
1737823396.4664648,-70
1737823396.4714649,-59
1737823396.4764647,-75
1737823396.4814649,-88
1737823396.4864647,-95
1737823396.4914649,-94
1737823396.4964647,-89
1737823396.5014648,-88
1737823396.5064647,-101
1737823396.5114648,-90
1737823396.5164647,-52
1737823396.5218875,-46
1737823396.5268877,-82
1737823396.5318875,-92
1737823396.5368876,-50
1737823396.5418875,-6
1737823396.5468876,-10
1737823396.5518875,-52
1737823396.5568876,-88
1737823396.5618875,-98
1737823396.5668876,-108
1737823396.5718875,-120
1737823396.5768876,-111
1737823396.5818875,-79
1737823396.5868876,-57
1737823396.5918877,-58
1737823396.5968876,-65
1737823396.6023104,-76
1737823396.6073103,-79
1737823396.6123104,-65
1737823396.6173103,-37
1737823396.6223104,-23
1737823396.6273105,-34
1737823396.6323104,-70
1737823396.6373105,-111
1737823396.6423104,-149
1737823396.6473105,-166
1737823396.6523104,-160
1737823396.6573105,-125
1737823396.6623104,-87
1737823396.6673105,-81
1737823396.6723104,-102
1737823396.6773105,-127
1737823396.6827333,-142
1737823396.6877332,-159
1737823396.6927333,-175
1737823396.6977332,-172
1737823396.7027333,-147
1737823396.7077332,-121
1737823396.7127333,-115
1737823396.7177331,-140
1737823396.7227333,-171
1737823396.7277331,-180
1737823396.7327332,-159
1737823396.7377331,-132
1737823396.7427332,-131
1737823396.747733,-135
1737823396.7527332,-117
1737823396.757733,-91
1737823396.763156,-110
1737823396.768156,-164
1737823396.773156,-194
1737823396.778156,-162
1737823396.783156,-93
1737823396.788156,-39
1737823396.793156,-40
1737823396.798156,-93
1737823396.803156,-147
1737823396.808156,-148
1737823396.813156,-102
1737823396.818156,-60
1737823396.823156,-52
1737823396.828156,-65
1737823396.833156,-65
1737823396.838156,-55
1737823396.8435788,-59
1737823396.8485787,-90
1737823396.8535788,-120
1737823396.8585787,-136
1737823396.8635788,-133
1737823396.868579,-120
1737823396.8735788,-101
1737823396.878579,-91
1737823396.8835788,-94
1737823396.888579,-116
1737823396.8935788,-139
1737823396.898579,-147
1737823396.9035788,-142
1737823396.9085789,-130
1737823396.9135787,-120
1737823396.9185789,-91
1737823396.9240017,-45
1737823396.9290016,-29
1737823396.9340017,-69
1737823396.9390016,-131
1737823396.9440017,-168
1737823396.9490016,-148
1737823396.9540017,-99
1737823396.9590015,-76
1737823396.9640017,-96
1737823396.9690015,-131
1737823396.9740016,-153
1737823396.9790015,-147
1737823396.9840016,-129
1737823396.9890015,-121
1737823396.9940016,-130
1737823396.9990015,-133
1737823397.0044243,-125
1737823397.0094244,-124
1737823397.0144243,-134
1737823397.0194244,-131
1737823397.0244243,-109
1737823397.0294244,-88
1737823397.0344243,-99
1737823397.0394244,-131
1737823397.0444243,-126
1737823397.0494244,-66
1737823397.0544243,-24
1737823397.0594244,-57
1737823397.0644245,-114
1737823397.0694244,-128
1737823397.0744245,-107
1737823397.0794244,-95
1737823397.0848472,-109
1737823397.089847,-109
1737823397.0948472,-89
1737823397.0998473,-77
1737823397.1048472,-92
1737823397.1098473,-97
1737823397.1148472,-85
1737823397.1198473,-88
1737823397.1248472,-120
1737823397.1298473,-148
1737823397.1348472,-137
1737823397.1398473,-97
1737823397.1448472,-77
1737823397.1498473,-94
1737823397.1548471,-105
1737823397.1598473,-91
1737823397.16527,-87
1737823397.17027,-105
1737823397.17527,-134
1737823397.18027,-143
1737823397.18527,-129
1737823397.19027,-121
1737823397.19527,-138
1737823397.20027,-148
1737823397.20527,-131
1737823397.21027,-109
1737823397.21527,-123
1737823397.22027,-160
1737823397.22527,-172
1737823397.23027,-144
1737823397.23527,-102
1737823397.24027,-84
1737823397.2456925,-92
1737823397.2506926,-108
1737823397.2556925,-101
1737823397.2606926,-94
1737823397.2656927,-97
1737823397.2706926,-110
1737823397.2756927,-143
1737823397.2806926,-171
1737823397.2856927,-169
1737823397.2906926,-142
1737823397.2956927,-136
1737823397.3006926,-158
1737823397.3056927,-169
1737823397.3106925,-158
1737823397.3156927,-144
1737823397.3206925,-136
1737823397.3261154,-128
1737823397.3311155,-116
1737823397.3361154,-122
1737823397.3411155,-148
1737823397.3461154,-150
1737823397.3511155,-96
1737823397.3561153,-44
1737823397.3611155,-59
1737823397.3661153,-105
1737823397.3711154,-122
1737823397.3761153,-109
1737823397.3811154,-92
1737823397.3861153,-89
1737823397.3911154,-94
1737823397.3961153,-113
1737823397.4011154,-139
1737823397.4065382,-147
1737823397.4115381,-119
1737823397.4165382,-70
1737823397.421538,-51
1737823397.4265382,-71
1737823397.431538,-90
1737823397.4365382,-101
1737823397.441538,-116
1737823397.4465382,-128
1737823397.451538,-119
1737823397.4565382,-78
1737823397.4615383,-37
1737823397.4665382,-41
1737823397.4715383,-73
1737823397.4765382,-99
1737823397.4815383,-108
1737823397.486961,-114
1737823397.491961,-129
1737823397.496961,-125
1737823397.501961,-102
1737823397.506961,-83
1737823397.511961,-78
1737823397.516961,-92
1737823397.521961,-115
1737823397.526961,-137
1737823397.531961,-140
1737823397.536961,-112
1737823397.541961,-76
1737823397.546961,-79
1737823397.551961,-104
1737823397.556961,-124
1737823397.561961,-127
1737823397.5673838,-122
1737823397.5723839,-107
1737823397.5773838,-75
1737823397.5823839,-58
1737823397.5873837,-78
1737823397.5923839,-99
1737823397.5973837,-84
1737823397.6023839,-50
1737823397.6073837,-43
1737823397.6123838,-68
1737823397.6173837,-84
1737823397.6223838,-75
1737823397.6273837,-55
1737823397.6323838,-57
1737823397.6373837,-83
1737823397.6423838,-118
1737823397.6478064,-115
1737823397.6528063,-75
1737823397.6578064,-42
1737823397.6628065,-52
1737823397.6678064,-74
1737823397.6728065,-61
1737823397.6778064,-34
1737823397.6828065,-30
1737823397.6878064,-55
1737823397.6928065,-83
1737823397.6978064,-101
1737823397.7028065,-122
1737823397.7078063,-135
1737823397.7128065,-119
1737823397.7178063,-89
1737823397.7228065,-85
1737823397.7282293,-97
1737823397.7332292,-99
1737823397.7382293,-100
1737823397.7432292,-116
1737823397.7482293,-130
1737823397.7532291,-103
1737823397.7582293,-50
1737823397.7632291,-41
1737823397.7682292,-94
1737823397.7732291,-141
1737823397.7782292,-129
1737823397.783229,-105
1737823397.7882292,-108
1737823397.793229,-110
1737823397.7982292,-88
1737823397.803229,-73
1737823564.444657,-62
1737823564.4496572,-53
1737823564.4546573,-55
1737823564.4596572,-68
1737823564.4646573,-86
1737823564.4696572,-112
1737823564.4746573,-140
1737823564.4796572,-166
1737823564.4846573,-189
1737823564.4896572,-205
1737823564.4946573,-212
1737823564.4996572,-216
1737823564.5046573,-211
1737823564.5096571,-198
1737823564.5146573,-182
1737823564.5196571,-170
1737823564.52508,-157
1737823564.53008,-150
1737823564.53508,-136
1737823564.54008,-125
1737823564.54508,-111
1737823564.55008,-103
1737823564.55508,-99
1737823564.56008,-103
1737823564.56508,-106
1737823564.57008,-101
1737823564.57508,-92
1737823564.58008,-92
1737823564.58508,-97
1737823564.59008,-94
1737823564.59508,-85
1737823564.60008,-83
1737823564.6055028,-93
1737823564.6105027,-105
1737823564.6155028,-104
1737823564.6205027,-100
1737823564.6255028,-102
1737823564.6305027,-106
1737823564.6355028,-106
1737823564.6405027,-100
1737823564.6455028,-96
1737823564.6505027,-97
1737823564.6555028,-101
1737823564.660503,-103
1737823564.6655028,-99
1737823564.670503,-96
1737823564.6755028,-100
1737823564.680503,-101
1737823564.6859255,-107
1737823564.6909256,-108
1737823564.6959257,-106
1737823564.7009256,-103
1737823564.7059257,-96
1737823564.7109256,-88
1737823564.7159257,-88
1737823564.7209256,-96
1737823564.7259257,-103
1737823564.7309256,-103
1737823564.7359257,-101
1737823564.7409256,-102
1737823564.7459257,-106
1737823564.7509255,-111
1737823564.7559257,-110
1737823564.7609255,-102
1737823564.7663481,-93
1737823564.7713482,-86
1737823564.776348,-86
1737823564.7813482,-97
1737823564.786348,-110
1737823564.7913482,-115
1737823564.796348,-108
1737823564.8013482,-93
1737823564.806348,-85
1737823564.8113482,-86
1737823564.8163483,-91
1737823564.8213482,-73
1737823564.8263483,-31
1737823564.8313482,1
1737823564.8363483,-5
1737823564.8413482,-48
1737823564.846771,-98
1737823564.851771,-112
1737823564.856771,-97
1737823564.861771,-82
1737823564.866771,-99
1737823564.871771,-132
1737823564.876771,-161
1737823564.881771,-170
1737823564.886771,-154
1737823564.891771,-137
1737823564.896771,-133
1737823564.901771,-128
1737823564.906771,-120
1737823564.911771,-105
1737823564.916771,-98
1737823564.921771,-95
1737823564.9271939,-93
1737823564.9321938,-93
1737823564.9371939,-111
1737823564.9421937,-122
1737823564.9471939,-90
1737823564.9521937,32
1737823564.9571939,336
1737823564.9621937,930
1737823564.9671938,1603
1737823564.9721937,1759
1737823564.9771938,987
1737823564.9821937,-379
1737823564.9871938,-1501
1737823564.9921937,-1833
1737823564.9971938,-1562
1737823565.0021937,-1142
1737823565.0076165,-792
1737823565.0126166,-487
1737823565.0176165,-228
1737823565.0226166,-68
1737823565.0276165,-1
1737823565.0326166,14
1737823565.0376165,5
1737823565.0426166,-16
1737823565.0476165,-38
1737823565.0526166,-56
1737823565.0576167,-66
1737823565.0626166,-64
1737823565.0676167,-56
1737823565.0726166,-52
1737823565.0776167,-55
1737823565.0826166,-68
1737823565.0880394,-84
1737823565.0930395,-92
1737823565.0980394,-85
1737823565.1030395,-77
1737823565.1080394,-74
1737823565.1130395,-78
1737823565.1180394,-81
1737823565.1230395,-73
1737823565.1280394,-64
1737823565.1330395,-61
1737823565.1380394,-66
1737823565.1430395,-63
1737823565.1480393,-57
1737823565.1530395,-51
1737823565.1580393,-59
1737823565.1630394,-68
1737823565.1684623,-65
1737823565.1734622,-48
1737823565.1784623,-37
1737823565.1834621,-37
1737823565.1884623,-47
1737823565.1934621,-52
1737823565.1984622,-54
1737823565.2034621,-54
1737823565.2084622,-50
1737823565.213462,-53
1737823565.2184622,-62
1737823565.223462,-72
1737823565.2284622,-78
1737823565.233462,-80
1737823565.2384622,-83
1737823565.243462,-82
1737823565.248885,-88
1737823565.2538848,-89
1737823565.258885,-104
1737823565.2638848,-123
1737823565.268885,-147
1737823565.2738848,-164
1737823565.278885,-178
1737823565.2838848,-187
1737823565.2888849,-193
1737823565.2938848,-185
1737823565.2988849,-171
1737823565.3038847,-160
1737823565.3088849,-157
1737823565.3138847,-144
1737823565.3188848,-130
1737823565.3238847,-114
1737823565.3293076,-106
1737823565.3343077,-104
1737823565.3393075,-100
1737823565.3443077,-92
1737823565.3493075,-87
1737823565.3543077,-91
1737823565.3593075,-91
1737823565.3643076,-88
1737823565.3693075,-88
1737823565.3743076,-95
1737823565.3793075,-107
1737823565.3843076,-110
1737823565.3893075,-98
1737823565.3943076,-89
1737823565.3993075,-89
1737823565.4043076,-95
1737823565.4097304,-95
1737823565.4147303,-90
1737823565.4197304,-87
1737823565.4247303,-95
1737823565.4297304,-107
1737823565.4347303,-112
1737823565.4397304,-111
1737823565.4447303,-102
1737823565.4497304,-94
1737823565.4547305,-102
1737823565.4597304,-110
1737823565.4647305,-114
1737823565.4697304,-109
1737823565.4747305,-106
1737823565.4797304,-107
1737823565.4847305,-108
1737823565.4901533,-101
1737823565.4951532,-99
1737823565.5001533,-101
1737823565.5051532,-103
1737823565.5101533,-104
1737823565.5151532,-103
1737823565.5201533,-104
1737823565.5251532,-101
1737823565.5301533,-96
1737823565.5351532,-92
1737823565.5401533,-99
1737823565.5451531,-108
1737823565.5501533,-105
1737823565.5551531,-97
1737823565.5601532,-95
1737823565.5651531,-100
1737823565.570576,-107
1737823565.575576,-105
1737823565.580576,-97
1737823565.585576,-93
1737823565.590576,-97
1737823565.595576,-99
1737823565.600576,-95
1737823565.605576,-90
1737823565.610576,-94
1737823565.615576,-102
1737823565.620576,-96
1737823565.625576,-67
1737823565.630576,-28
1737823565.635576,-3
1737823565.640576,-18
1737823565.645576,-63
1737823565.6509988,-102
1737823565.6559987,-109
1737823565.6609988,-89
1737823565.6659987,-80
1737823565.6709988,-94
1737823565.6759987,-121
1737823565.6809988,-148
1737823565.685999,-167
1737823565.6909988,-165
1737823565.695999,-152
1737823565.7009988,-138
1737823565.705999,-129
1737823565.7109988,-120
1737823565.715999,-105
1737823565.7209988,-96
1737823565.7259989,-96
1737823565.7314217,-94
1737823565.7364216,-93
1737823565.7414217,-113
1737823565.7464216,-129
1737823565.7514217,-94
1737823565.7564216,47
1737823565.7614217,357
1737823565.7664216,911
1737823565.7714217,1529
1737823565.7764215,1686
1737823565.7814217,985
1737823565.7864215,-318
1737823565.7914217,-1434
1737823565.7964215,-1804
1737823565.8014216,-1546
1737823565.8064215,-1107
1737823565.8118443,-746
1737823565.8168445,-449
1737823565.8218443,-214
1737823565.8268445,-74
1737823565.8318443,-22
1737823565.8368444,-16
1737823565.8418443,-26
1737823565.8468444,-35
1737823565.8518443,-42
1737823565.8568444,-43
1737823565.8618443,-50
1737823565.8668444,-59
1737823565.8718443,-65
1737823565.8768444,-61
1737823565.8818443,-59
1737823565.8868444,-64
1737823565.8922672,-75
1737823565.897267,-83
1737823565.9022672,-87
1737823565.907267,-77
1737823565.9122672,-70
1737823565.917267,-67
1737823565.9222672,-76
1737823565.9272673,-78
1737823565.9322672,-69
1737823565.9372673,-54
1737823565.9422672,-50
1737823565.9472673,-61
1737823565.9522672,-72
1737823565.9572673,-69
1737823565.9622672,-58
1737823565.9672673,-51
1737823565.97269,-48
1737823565.97769,-44
1737823565.98269,-39
1737823565.98769,-38
1737823565.99269,-46
1737823565.99769,-50
1737823566.00269,-50
1737823566.00769,-51
1737823566.01269,-60
1737823566.01769,-73
1737823566.02269,-83
1737823566.02769,-93
1737823566.03269,-99
1737823566.03769,-98
1737823566.04269,-87
1737823566.04769,-71
1737823566.0531127,-67
1737823566.0581129,-84
1737823566.0631127,-105
1737823566.0681129,-124
1737823566.0731127,-136
1737823566.0781128,-154
1737823566.0831127,-172
1737823566.0881128,-181
1737823566.0931127,-181
1737823566.0981128,-177
1737823566.1031127,-165
1737823566.1081128,-150
1737823566.1131127,-138
1737823566.1181128,-127
1737823566.123113,-121
1737823566.1281128,-115
1737823566.1335356,-117
1737823566.1385355,-114
1737823566.1435356,-105
1737823566.1485355,-94
1737823566.1535356,-95
1737823566.1585357,-104
1737823566.1635356,-106
1737823566.1685357,-95
1737823566.1735356,-84
1737823566.1785357,-79
1737823566.1835356,-80
1737823566.1885357,-79
1737823566.1935356,-77
1737823566.1985357,-79
1737823566.2035356,-84
1737823566.2085357,-87
1737823566.2139585,-93
1737823566.2189584,-92
1737823566.2239585,-90
1737823566.2289584,-92
1737823566.2339585,-101
1737823566.2389584,-112
1737823566.2439585,-115
1737823566.2489583,-104
1737823566.2539585,-93
1737823566.2589583,-95
1737823566.2639585,-111
1737823566.2689583,-122
1737823566.2739584,-119
1737823566.2789583,-104
1737823566.2839584,-94
1737823566.2889583,-94
1737823566.2943811,-96
1737823566.2993813,-97
1737823566.3043811,-101
1737823566.3093812,-102
1737823566.3143811,-101
1737823566.3193812,-94
1737823566.324381,-92
1737823566.3293812,-92
1737823566.334381,-94
1737823566.3393812,-91
1737823566.344381,-93
1737823566.3493812,-99
1737823566.354381,-103
1737823566.3593812,-99
1737823566.3643813,-92
1737823566.3693812,-88
1737823566.374804,-87
1737823566.379804,-92
1737823566.384804,-100
1737823566.389804,-110
1737823566.394804,-111
1737823566.399804,-95
1737823566.404804,-66
1737823566.409804,-33
1737823566.414804,-6
1737823566.419804,4
1737823566.424804,-19
1737823566.429804,-60
1737823566.434804,-95
1737823566.439804,-100
1737823566.444804,-83
1737823566.449804,-80
1737823566.455227,-102
1737823566.4602268,-137
1737823566.465227,-156
1737823566.4702268,-157
1737823566.4752269,-146
1737823566.4802268,-132
1737823566.4852269,-116
1737823566.4902267,-98
1737823566.4952269,-90
1737823566.5002267,-97
1737823566.5052269,-104
1737823566.5102267,-107
1737823566.5152268,-92
1737823566.5202267,-88
1737823566.5252268,-103
1737823566.5302267,-104
1737823566.5356495,-39
1737823566.5406497,118
1737823566.5456495,466
1737823566.5506496,1080
1737823566.5556495,1679
1737823566.5606496,1654
1737823566.5656495,702
1737823566.5706496,-712
1737823566.5756495,-1713
1737823566.5806496,-1883
1737823566.5856495,-1514
1737823566.5906496,-1073
1737823566.5956495,-722
1737823566.6006496,-413
1737823566.6056497,-162
1737823566.6106496,-21
1737823566.6160722,18
1737823566.6210723,8
1737823566.6260722,-11
1737823566.6310723,-20
1737823566.6360722,-22
1737823566.6410723,-29
1737823566.6460721,-41
1737823566.6510723,-55
1737823566.6560721,-57
1737823566.6610723,-57
1737823566.6660721,-55
1737823566.6710722,-66
1737823566.6760721,-80
1737823566.6810722,-87
1737823566.686072,-85
1737823566.6910722,-82
1737823566.696495,-77
1737823566.701495,-74
1737823566.706495,-73
1737823566.711495,-69
1737823566.716495,-64
1737823566.721495,-63
1737823566.726495,-61
1737823566.731495,-64
1737823566.736495,-70
1737823566.741495,-71
1737823566.746495,-56
1737823566.751495,-39
1737823566.756495,-34
1737823566.761495,-42
1737823566.766495,-47
1737823566.771495,-41
1737823566.7769177,-36
1737823566.7819178,-50
1737823566.7869177,-63
1737823566.7919178,-71
1737823566.796918,-66
1737823566.8019178,-61
1737823566.806918,-64
1737823566.8119178,-76
1737823566.816918,-90
1737823566.8219178,-97
1737823566.826918,-99
1737823566.8319178,-96
1737823566.8369179,-105
1737823566.8419178,-125
1737823566.8469179,-142
1737823566.8519177,-154
1737823566.8573406,-165
1737823566.8623407,-176
1737823566.8673406,-181
1737823566.8723407,-185
1737823566.8773406,-186
1737823566.8823407,-179
1737823566.8873405,-174
1737823566.8923407,-166
1737823566.8973405,-153
1737823566.9023407,-143
1737823566.9073405,-131
1737823566.9123406,-123
1737823566.9173405,-104
1737823566.9223406,-88
1737823566.9273405,-88
1737823566.9323406,-93
1737823566.9377635,-102
1737823566.9427633,-101
1737823566.9477634,-96
1737823566.9527633,-89
1737823566.9577634,-89
1737823566.9627633,-90
1737823566.9677634,-88
1737823566.9727633,-82
1737823566.9777634,-77
1737823566.9827633,-78
1737823566.9877634,-84
1737823566.9927633,-91
1737823566.9977634,-96
1737823567.0027635,-95
1737823567.0077634,-96
1737823567.0127635,-95
1737823567.018186,-102
1737823567.0231862,-110
1737823567.028186,-114
1737823567.0331862,-106
1737823567.0381863,-102
1737823567.0431862,-100
1737823567.0481863,-99
1737823567.0531862,-96
1737823567.0581863,-100
1737823567.0631862,-109
1737823567.0681863,-117
1737823567.0731862,-108
1737823567.0781863,-95
1737823567.0831861,-92
1737823567.0881863,-104
1737823567.0931861,-110
1737823567.0986087,-92
1737823567.1036088,-73
1737823567.1086087,-80
1737823567.1136088,-100
1737823567.1186087,-115
1737823567.1236088,-107
1737823567.1286087,-89
1737823567.1336088,-78
1737823567.1386087,-77
1737823567.1436088,-80
1737823567.1486087,-86
1737823567.1536088,-94
1737823567.158609,-104
1737823567.1636088,-104
1737823567.168609,-93
1737823567.1736088,-79
1737823567.1790316,-76
1737823567.1840315,-81
1737823567.1890316,-76
1737823567.1940317,-49
1737823567.1990316,-16
1737823567.2040317,-6
1737823567.2090316,-26
1737823567.2140317,-58
1737823567.2190316,-73
1737823567.2240317,-69
1737823567.2290316,-69
1737823567.2340317,-91
1737823567.2390316,-125
1737823567.2440317,-155
1737823567.2490315,-162
1737823567.2540317,-155
1737823567.2594545,-139
1737823567.2644544,-123
1737823567.2694545,-116
1737823567.2744544,-119
1737823567.2794545,-123
1737823567.2844543,-119
1737823567.2894545,-105
1737823567.2944543,-93
1737823567.2994545,-87
1737823567.3044543,-101
1737823567.3094544,-133
1737823567.3144543,-126
1737823567.3194544,-17
1737823567.3244543,218
1737823567.3294544,648
1737823567.3344543,1293
1737823567.3398771,1827
1737823567.3448772,1670
1737823567.349877,587
1737823567.3548772,-891
1737823567.359877,-1887
1737823567.3648772,-1996
1737823567.369877,-1543
1737823567.3748772,-1027
1737823567.379877,-655
1737823567.3848772,-393
1737823567.389877,-207
1737823567.3948772,-87
1737823567.3998773,-11
1737823567.4048772,20
1737823567.4098773,21
1737823567.4148772,3
1737823567.4203,-13
1737823567.4253,-22
1737823567.4303,-31
1737823567.4353,-40
1737823567.4403,-57
1737823567.4453,-72
1737823567.4503,-76
1737823567.4553,-69
1737823567.4603,-60
1737823567.4653,-65
1737823567.4703,-73
1737823567.4753,-75
1737823567.4803,-66
1737823567.4853,-65
1737823567.4903,-76
1737823567.4953,-89
1737823567.500723,-84
1737823567.5057228,-64
1737823567.5107229,-46
1737823567.5157228,-45
1737823567.5207229,-54
1737823567.5257227,-68
1737823567.5307229,-62
1737823567.5357227,-42
1737823567.5407228,-25
1737823567.5457227,-27
1737823567.5507228,-48
1737823567.5557227,-61
1737823567.5607228,-61
1737823567.5657227,-50
1737823567.5707228,-47
1737823567.5757227,-54
1737823567.5811455,-68
1737823567.5861456,-85
1737823567.5911455,-100
1737823567.5961456,-104
1737823567.6011455,-98
1737823567.6061456,-96
1737823567.6111455,-108
1737823567.6161456,-125
1737823567.6211455,-132
1737823567.6261456,-135
1737823567.6311457,-142
1737823567.6361456,-161
1737823567.6411457,-181
1737823567.6461456,-189
1737823567.6511457,-183
1737823567.6561456,-178
1737823567.6615684,-182
1737823567.6665685,-185
1737823567.6715684,-176
1737823567.6765685,-165
1737823567.6815684,-147
1737823567.6865685,-133
1737823567.6915684,-121
1737823567.6965685,-114
1737823567.7015684,-108
1737823567.7065685,-108
1737823567.7115684,-103
1737823567.7165685,-96
1737823567.7215683,-86
1737823567.7265685,-80
1737823567.7315683,-82
1737823567.7365685,-81
1737823567.7419913,-79
1737823567.7469912,-75
1737823567.7519913,-72
1737823567.7569911,-73
1737823567.7619913,-75
1737823567.7669911,-75
1737823567.7719913,-77
1737823567.7769911,-80
1737823567.7819912,-82
1737823567.7869911,-83
1737823567.7919912,-84
1737823567.796991,-83
1737823567.8019912,-86
1737823567.806991,-95
1737823567.8119912,-99
1737823567.816991,-98
1737823567.822414,-94
1737823567.827414,-88
1737823567.832414,-87
1737823567.837414,-87
1737823567.842414,-87
1737823567.847414,-88
1737823567.852414,-93
1737823567.857414,-99
1737823567.862414,-103
1737823567.867414,-104
1737823567.872414,-97
1737823567.877414,-86
1737823567.882414,-80
1737823567.887414,-84
1737823567.892414,-93
1737823567.897414,-97
1737823567.9028368,-95
1737823567.907837,-95
1737823567.9128368,-100
1737823567.917837,-104
1737823567.9228368,-105
1737823567.927837,-100
1737823567.9328368,-101
1737823567.937837,-98
1737823567.9428368,-95
1737823567.9478369,-92
1737823567.9528368,-96
1737823567.9578369,-99
1737823567.9628367,-95
1737823567.9678369,-67
1737823567.9728367,-35
1737823567.9778368,-23
1737823567.9832597,-35
1737823567.9882596,-63
1737823567.9932597,-83
1737823567.9982595,-89
1737823568.0032597,-91
1737823568.0082595,-94
1737823568.0132596,-108
1737823568.0182595,-128
1737823568.0232596,-154
1737823568.0282595,-172
1737823568.0332596,-162
1737823568.0382595,-135
1737823568.0432596,-112
1737823568.0482595,-105
1737823568.0532596,-108
1737823568.0582595,-105
1737823568.0636823,-100
1737823568.0686824,-92
1737823568.0736823,-92
1737823568.0786824,-105
1737823568.0836823,-128
1737823568.0886824,-91
1737823568.0936823,70
1737823568.0986824,392
1737823568.1036825,950
1737823568.1086824,1712
1737823568.1136825,2247
1737823568.1186824,1920
1737823568.1236825,585
1737823568.1286824,-1058
1737823568.1336825,-2071
1737823568.1386824,-2125
1737823568.1441052,-1657
1737823568.1491053,-1172
1737823568.1541052,-812
1737823568.1591053,-518
1737823568.1641052,-309
1737823568.1691053,-199
1737823568.1741052,-153
1737823568.1791053,-130
1737823568.1841052,-112
1737823568.1891053,-93
1737823568.1941051,-77
1737823568.1991053,-70
1737823568.2041051,-66
1737823568.2091053,-66
1737823568.2141051,-68
1737823568.2191052,-76
1737823568.224528,-82
1737823568.229528,-81
1737823568.234528,-71
1737823568.239528,-64
1737823568.244528,-70
1737823568.249528,-77
1737823568.254528,-82
1737823568.259528,-82
1737823568.264528,-75
1737823568.269528,-70
1737823568.274528,-62
1737823568.279528,-59
1737823568.284528,-56
1737823568.289528,-61
1737823568.294528,-62
1737823568.299528,-60
1737823568.3049507,-54
1737823568.3099508,-49
1737823568.3149507,-44
1737823568.3199508,-44
1737823568.3249507,-45
1737823568.3299508,-49
1737823568.3349507,-44
1737823568.3399508,-41
1737823568.344951,-50
1737823568.3499508,-65
1737823568.354951,-77
1737823568.3599508,-77
1737823568.364951,-74
1737823568.3699508,-79
1737823568.374951,-94
1737823568.3799508,-107
1737823568.3853736,-114
1737823568.3903737,-109
1737823568.3953736,-109
1737823568.4003737,-111
1737823568.4053736,-119
1737823568.4103737,-123
1737823568.4153736,-132
1737823568.4203737,-137
1737823568.4253736,-151
1737823568.4303737,-154
1737823568.4353735,-148
1737823568.4403737,-138
1737823568.4453735,-132
1737823568.4503736,-131
1737823568.4553735,-128
1737823568.4603736,-123
1737823568.4657962,-116
1737823568.470796,-110
1737823568.4757962,-117
1737823568.480796,-117
1737823568.4857962,-104
1737823568.490796,-83
1737823568.4957962,-71
1737823568.5007963,-81
1737823568.5057962,-101
1737823568.5107963,-105
1737823568.5157962,-88
1737823568.5207963,-76
1737823568.5257962,-81
1737823568.5307963,-94
1737823568.5357962,-101
1737823568.5407963,-95
1737823568.546219,-83
1737823568.551219,-79
1737823568.556219,-81
1737823568.561219,-90
1737823568.566219,-100
1737823568.571219,-94
1737823568.576219,-81
1737823568.581219,-74
1737823568.586219,-81
1737823568.591219,-101
1737823568.596219,-115
1737823568.601219,-118
1737823568.606219,-113
1737823568.611219,-104
1737823568.616219,-96
1737823568.621219,-97
1737823568.6266418,-102
1737823568.6316419,-107
1737823568.6366417,-102
1737823568.6416419,-90
1737823568.6466417,-81
1737823568.6516418,-89
1737823568.6566417,-99
1737823568.6616418,-103
1737823568.6666417,-95
1737823568.6716418,-85
1737823568.6766417,-85
1737823568.6816418,-92
1737823568.6866417,-100
1737823568.6916418,-97
1737823568.6966417,-90
1737823568.7016418,-85
1737823568.7070646,-91
1737823568.7120645,-96
1737823568.7170646,-92
1737823568.7220645,-83
1737823568.7270646,-81
1737823568.7320645,-90
1737823568.7370646,-97
1737823568.7420647,-97
1737823568.7470646,-96
1737823568.7520647,-91
1737823568.7570646,-86
1737823568.7620647,-86
1737823568.7670646,-92
1737823568.7720647,-102
1737823568.7770646,-110
1737823568.7820647,-108
1737823568.7874875,-103
1737823568.7924874,-94
1737823568.7974875,-82
1737823568.8024874,-58
1737823568.8074875,-22
1737823568.8124874,0
1737823568.8174875,-9
1737823568.8224874,-48
1737823568.8274875,-78
1737823568.8324873,-83
1737823568.8374875,-80
1737823568.8424873,-87
1737823568.8474874,-108
1737823568.8524873,-131
1737823568.8574874,-147
1737823568.8624873,-158
1737823568.86791,-154
1737823568.87291,-136
1737823568.87791,-111
1737823568.88291,-104
1737823568.88791,-109
1737823568.89291,-119
1737823568.89791,-118
1737823568.90291,-99
1737823568.90791,-80
1737823568.91291,-94
1737823568.91791,-115
1737823568.92291,-64
1737823568.92791,134
1737823568.93291,541
1737823568.93791,1202
1737823568.94291,1921
1737823568.9483328,2132
1737823568.953333,1361
1737823568.9583328,-147
1737823568.963333,-1520
1737823568.9683328,-2055
1737823568.973333,-1821
1737823568.9783328,-1343
1737823568.9833329,-951
1737823568.9883327,-653
1737823568.9933329,-410
1737823568.9983327,-257
1737823569.0033329,-188
1737823569.0083327,-156
1737823569.0133328,-130
1737823569.0183327,-108
1737823569.0233328,-93
1737823569.0287557,-80
1737823569.0337555,-72
1737823569.0387557,-73
1737823569.0437555,-78
1737823569.0487556,-82
1737823569.0537555,-74
1737823569.0587556,-65
1737823569.0637555,-71
1737823569.0687556,-86
1737823569.0737555,-95
1737823569.0787556,-92
1737823569.0837555,-83
1737823569.0887556,-74
1737823569.0937555,-69
1737823569.0987556,-68
1737823569.1037557,-67
1737823569.1091783,-65
1737823569.1141784,-65
1737823569.1191783,-63
1737823569.1241784,-62
1737823569.1291783,-67
1737823569.1341784,-67
1737823569.1391785,-59
1737823569.1441784,-50
1737823569.1491785,-44
1737823569.1541784,-49
1737823569.1591785,-59
1737823569.1641784,-59
1737823569.1691785,-44
1737823569.1741784,-38
1737823569.1791785,-44
1737823569.1841784,-58
1737823569.1896012,-65
1737823569.1946013,-71
1737823569.1996012,-76
1737823569.2046013,-76
1737823569.2096012,-72
1737823569.2146013,-69
1737823569.2196012,-80
1737823569.2246013,-89
1737823569.2296011,-87
1737823569.2346013,-84
1737823569.2396011,-92
1737823569.2446012,-111
1737823569.2496011,-124
1737823569.2546012,-136
1737823569.259601,-147
1737823569.2646012,-146
1737823569.270024,-133
1737823569.275024,-124
1737823569.280024,-125
1737823569.285024,-135
1737823569.290024,-132
1737823569.295024,-119
1737823569.300024,-103
1737823569.305024,-95
1737823569.310024,-91
1737823569.315024,-81
1737823569.320024,-71
1737823569.325024,-62
1737823569.330024,-60
1737823569.335024,-69
1737823569.340024,-80
1737823569.345024,-93
1737823569.3504467,-93
1737823569.3554468,-84
1737823569.3604467,-76
1737823569.3654468,-74
1737823569.3704467,-78
1737823569.3754468,-83
1737823569.380447,-88
1737823569.3854468,-94
1737823569.390447,-96
1737823569.3954468,-95
1737823569.400447,-91
1737823569.4054468,-95
1737823569.410447,-102
1737823569.4154468,-107
1737823569.4204469,-99
1737823569.4254467,-95
1737823569.4308696,-96
1737823569.4358697,-99
1737823569.4408696,-93
1737823569.4458697,-93
1737823569.4508696,-96
1737823569.4558697,-106
1737823569.4608696,-107
1737823569.4658697,-101
1737823569.4708695,-93
1737823569.4758697,-91
1737823569.4808695,-93
1737823569.4858696,-95
1737823569.4908695,-102
1737823569.4958696,-107
1737823569.5008695,-108
1737823569.5058696,-104
1737823569.5112925,-94
1737823569.5162923,-88
1737823569.5212924,-93
1737823569.5262923,-107
1737823569.5312924,-112
1737823569.5362923,-104
1737823569.5412924,-91
1737823569.5462923,-91
1737823569.5512924,-93
1737823569.5562923,-89
1737823569.5612924,-82
1737823569.5662923,-83
1737823569.5712924,-100
1737823569.5762925,-113
1737823569.5812924,-107
1737823569.5862925,-94
1737823569.591715,-89
1737823569.5967152,-95
1737823569.601715,-96
1737823569.6067152,-75
1737823569.6117153,-42
1737823569.6167152,-19
1737823569.6217153,-15
1737823569.6267152,-35
1737823569.6317153,-56
1737823569.6367152,-73
1737823569.6417153,-73
1737823569.6467152,-68
1737823569.6517153,-76
1737823569.6567152,-107
1737823569.6617153,-143
1737823569.6667151,-164
1737823569.672138,-163
1737823569.677138,-146
1737823569.682138,-131
1737823569.687138,-125
1737823569.692138,-115
1737823569.697138,-102
1737823569.702138,-92
1737823569.707138,-96
1737823569.712138,-98
1737823569.717138,-94
1737823569.722138,-102
1737823569.727138,-117
1737823569.732138,-96
1737823569.737138,21
1737823569.742138,294
1737823569.747138,817
1737823569.7525609,1539
1737823569.7575607,1993
1737823569.7625608,1585
1737823569.7675607,305
1737823569.7725608,-1126
1737823569.7775607,-1896
1737823569.7825608,-1843
1737823569.7875607,-1402
1737823569.7925608,-975
1737823569.7975607,-634
1737823569.8025608,-362
1737823569.8075607,-185
1737823569.8125608,-118
1737823569.817561,-94
1737823569.8225608,-85
1737823569.827561,-77
1737823569.8329835,-76
1737823569.8379836,-73
1737823569.8429835,-75
1737823569.8479836,-72
1737823569.8529837,-68
1737823569.8579836,-64
1737823569.8629837,-62
1737823569.8679836,-66
1737823569.8729837,-76
1737823569.8779836,-87
1737823569.8829837,-89
1737823569.8879836,-83
1737823569.8929837,-73
1737823569.8979836,-67
1737823569.9029837,-73
1737823569.9079835,-79
1737823569.9134064,-75
1737823569.9184065,-74
1737823569.9234064,-74
1737823569.9284065,-76
1737823569.9334064,-70
1737823569.9384065,-61
1737823569.9434063,-55
1737823569.9484065,-55
1737823569.9534063,-51
1737823569.9584064,-43
1737823569.9634063,-34
1737823569.9684064,-32
1737823569.9734063,-42
1737823569.9784064,-51
1737823569.9834063,-50
1737823569.9884064,-44
1737823569.9938293,-46
1737823569.9988291,-58
1737823570.0038292,-64
1737823570.008829,-64
1737823570.0138292,-65
1737823570.018829,-71
1737823570.0238292,-82
1737823570.028829,-81
1737823570.0338292,-71
1737823570.038829,-67
1737823570.0438292,-77
1737823570.0488293,-97
1737823570.0538292,-121
1737823570.0588293,-146
1737823570.0638292,-160
1737823570.0688293,-167
1737823570.074252,-171
1737823570.079252,-168
1737823570.084252,-163
1737823570.089252,-149
1737823570.094252,-141
1737823570.099252,-135
1737823570.104252,-124
1737823570.109252,-112
1737823570.114252,-101
1737823570.119252,-99
1737823570.124252,-95
1737823570.129252,-91
1737823570.134252,-93
1737823570.139252,-98
1737823570.144252,-99
1737823570.149252,-94
1737823570.1546748,-85
1737823570.159675,-91
1737823570.1646748,-101
1737823570.1696749,-109
1737823570.1746747,-100
1737823570.1796749,-86
1737823570.1846747,-82
1737823570.1896749,-92
1737823570.1946747,-100
1737823570.1996748,-97
1737823570.2046747,-88
1737823570.2096748,-83
1737823570.2146747,-85
1737823570.2196748,-91
1737823570.2246747,-93
1737823570.2296748,-94
1737823570.2350974,-99
1737823570.2400973,-106
1737823570.2450974,-111
1737823570.2500975,-107
1737823570.2550974,-92
1737823570.2600975,-81
1737823570.2650974,-80
1737823570.2700975,-83
1737823570.2750974,-89
1737823570.2800975,-99
1737823570.2850974,-113
1737823570.2900975,-118
1737823570.2950974,-108
1737823570.3000975,-91
1737823570.3050973,-78
1737823570.3100975,-84
1737823570.3155203,-98
1737823570.3205202,-103
1737823570.3255203,-97
1737823570.3305202,-92
1737823570.3355203,-87
1737823570.3405201,-84
1737823570.3455203,-84
1737823570.3505201,-92
1737823570.3555202,-102
1737823570.3605201,-107
1737823570.3655202,-104
1737823570.37052,-103
1737823570.3755202,-101
1737823570.38052,-98
1737823570.3855202,-86
1737823570.39052,-72
1737823570.395943,-69
1737823570.400943,-64
1737823570.405943,-57
1737823570.410943,-41
1737823570.415943,-30
1737823570.420943,-24
1737823570.425943,-28
1737823570.430943,-51
1737823570.435943,-76
1737823570.440943,-85
1737823570.445943,-77
1737823570.450943,-75
1737823570.455943,-98
1737823570.460943,-138
1737823570.465943,-168
1737823570.470943,-171
1737823570.4763658,-149
1737823570.481366,-121
1737823570.4863658,-107
1737823570.491366,-105
1737823570.4963658,-115
1737823570.501366,-118
1737823570.5063658,-115
1737823570.511366,-108
1737823570.5163658,-93
1737823570.521366,-79
1737823570.5263658,-88
1737823570.5313659,-105
1737823570.5363657,-75
1737823570.5413659,33
1737823570.5463657,288
1737823570.5513659,816
1737823570.5567887,1482
1737823570.5617886,1728
1737823570.5667887,1049
1737823570.5717885,-334
1737823570.5767887,-1558
1737823570.5817885,-1968
1737823570.5867887,-1683
1737823570.5917885,-1205
1737823570.5967886,-802
1737823570.6017885,-451
1737823570.6067886,-149
1737823570.6117885,36
1737823570.6167886,101
1737823570.6217885,102
1737823570.6267886,74
1737823570.6317885,48
1737823570.6372113,25
1737823570.6422114,4
1737823570.6472113,-22
1737823570.6522114,-41
1737823570.6572113,-41
1737823570.6622114,-21
1737823570.6672113,-22
1737823570.6722114,-51
1737823570.6772113,-84
1737823570.6822114,-81
1737823570.6872115,-59
1737823570.6922114,-43
1737823570.6972115,-45
1737823570.7022114,-52
1737823570.7072115,-64
1737823570.7122114,-83
1737823570.717634,-94
1737823570.722634,-73
1737823570.727634,-34
1737823570.732634,-12
1737823570.737634,-30
1737823570.742634,-59
1737823570.747634,-73
1737823570.752634,-70
1737823570.757634,-59
1737823570.762634,-41
1737823570.767634,-24
1737823570.772634,-20
1737823570.777634,-26
1737823570.782634,-34
1737823570.787634,-31
1737823570.792634,-27
1737823570.7980568,-40
1737823570.8030567,-53
1737823570.8080568,-51
1737823570.8130567,-42
1737823570.8180568,-43
1737823570.8230567,-63
1737823570.8280568,-85
1737823570.8330567,-92
1737823570.8380568,-95
1737823570.843057,-109
1737823570.8480568,-144
1737823570.853057,-175
1737823570.8580568,-192
1737823570.863057,-195
1737823570.8680568,-199
1737823570.873057,-215
1737823570.8784797,-233
1737823570.8834796,-227
1737823570.8884797,-201
1737823570.8934796,-173
1737823570.8984797,-165
1737823570.9034796,-155
1737823570.9084797,-144
1737823570.9134796,-130
1737823570.9184797,-121
1737823570.9234796,-115
1737823570.9284797,-103
1737823570.9334795,-91
1737823570.9384797,-79
1737823570.9434795,-76
1737823570.9484797,-79
1737823570.9534795,-95
1737823570.9589024,-111
1737823570.9639025,-117
1737823570.9689023,-109
1737823570.9739025,-92
1737823570.9789023,-78
1737823570.9839025,-87
1737823570.9889023,-103
1737823570.9939024,-109
1737823570.9989023,-93
1737823571.0039024,-82
1737823571.0089023,-87
1737823571.0139024,-100
1737823571.0189023,-104
1737823571.0239024,-110
1737823571.0289023,-117
1737823571.0339024,-116
1737823571.0393252,-97
1737823571.044325,-76
1737823571.0493252,-77
1737823571.054325,-93
1737823571.0593252,-103
1737823571.064325,-100
1737823571.0693252,-92
1737823571.074325,-85
1737823571.0793252,-87
1737823571.0843253,-94
1737823571.0893252,-104
1737823571.0943253,-111
1737823571.0993252,-109
1737823571.1043253,-97
1737823571.1093252,-84
1737823571.1143253,-80
1737823571.119748,-91
1737823571.124748,-103
1737823571.129748,-105
1737823571.134748,-98
1737823571.139748,-95
1737823571.144748,-99
1737823571.149748,-103
1737823571.154748,-105
1737823571.159748,-102
1737823571.164748,-89
1737823571.169748,-65
1737823571.174748,-34
1737823571.179748,-8
1737823571.184748,-8
1737823571.189748,-41
1737823571.194748,-80
1737823571.2001708,-96
1737823571.2051709,-89
1737823571.2101707,-79
1737823571.2151709,-95
1737823571.2201707,-133
1737823571.2251709,-162
1737823571.2301707,-165
1737823571.2351708,-145
1737823571.2401707,-125
1737823571.2451708,-114
1737823571.2501707,-113
1737823571.2551708,-111
1737823571.2601707,-104
1737823571.2651708,-99
1737823571.2701707,-99
1737823571.2751708,-94
1737823571.2805936,-85
1737823571.2855935,-91
1737823571.2905936,-112
1737823571.2955935,-96
1737823571.3005936,-9
1737823571.3055935,209
1737823571.3105936,713
1737823571.3155935,1455
1737823571.3205936,1905
1737823571.3255937,1433
1737823571.3305936,84
1737823571.3355937,-1308
1737823571.3405936,-1935
1737823571.3455937,-1770
1737823571.3505936,-1331
1737823571.3555937,-964
1737823571.3610165,-640
1737823571.3660164,-323
1737823571.3710165,-90
1737823571.3760164,17
1737823571.3810165,36
1737823571.3860164,23
1737823571.3910165,5
1737823571.3960164,-10
1737823571.4010165,-17
1737823571.4060163,-22
1737823571.4110165,-30
1737823571.4160163,-44
1737823571.4210165,-61
1737823571.4260163,-67
1737823571.4310164,-65
1737823571.4360163,-63
1737823571.4414392,-67
1737823571.4464393,-69
1737823571.4514391,-74
1737823571.4564393,-78
1737823571.4614391,-79
1737823571.4664392,-75
1737823571.4714391,-69
1737823571.4764392,-66
1737823571.481439,-67
1737823571.4864392,-70
1737823571.491439,-69
1737823571.4964392,-67
1737823571.501439,-58
1737823571.5064392,-52
1737823571.511439,-47
1737823571.5164392,-44
1737823571.521862,-45
1737823571.526862,-48
1737823571.531862,-49
1737823571.536862,-49
1737823571.541862,-45
1737823571.546862,-40
1737823571.551862,-37
1737823571.556862,-46
1737823571.561862,-62
1737823571.566862,-71
1737823571.571862,-69
1737823571.576862,-65
1737823571.581862,-61
1737823571.586862,-68
1737823571.591862,-84
1737823571.596862,-104
1737823571.602285,-120
1737823571.6072848,-138
1737823571.612285,-152
1737823571.6172848,-167
1737823571.622285,-185
1737823571.6272848,-194
1737823571.6322849,-203
1737823571.6372848,-205
1737823571.6422849,-196
1737823571.6472847,-178
1737823571.6522849,-156
1737823571.6572847,-138
1737823571.6622849,-125
1737823571.6672847,-120
1737823571.6722848,-122
1737823571.6772847,-124
1737823571.6827075,-121
1737823571.6877077,-105
1737823571.6927075,-87
1737823571.6977077,-77
1737823571.7027075,-83
1737823571.7077076,-97
1737823571.7127075,-102
1737823571.7177076,-91
1737823571.7227075,-82
1737823571.7277076,-84
1737823571.7327075,-95
1737823571.7377076,-105
1737823571.7427075,-99
1737823571.7477076,-91
1737823571.7527075,-86
1737823571.7577076,-89
1737823571.7631304,-99
1737823571.7681303,-104
1737823571.7731304,-105
1737823571.7781303,-101
1737823571.7831304,-99
1737823571.7881303,-98
1737823571.7931304,-102
1737823571.7981305,-104
1737823571.8031304,-107
1737823571.8081305,-107
1737823571.8131304,-109
1737823571.8181305,-106
1737823571.8231304,-97
1737823571.8281305,-92
1737823571.8331304,-93
1737823571.8381305,-98
1737823571.8435533,-107
1737823571.8485532,-111
1737823571.8535533,-104
1737823571.8585532,-98
1737823571.8635533,-94
1737823571.8685532,-95
1737823571.8735533,-101
1737823571.8785532,-106
1737823571.8835533,-108
1737823571.8885531,-107
1737823571.8935533,-102
1737823571.8985531,-98
1737823571.9035532,-94
1737823571.9085531,-94
1737823571.9135532,-97
1737823571.918553,-97
1737823571.923976,-98
1737823571.928976,-103
1737823571.933976,-107
1737823571.938976,-106
1737823571.943976,-98
1737823571.948976,-90
1737823571.953976,-88
1737823571.958976,-90
1737823571.963976,-81
1737823571.968976,-54
1737823571.973976,-18
1737823571.978976,-2
1737823571.983976,-18
1737823571.988976,-61
1737823571.993976,-87
1737823571.998976,-92
1737823572.0043988,-82
1737823572.0093987,-81
1737823572.0143988,-99
1737823572.0193987,-129
1737823572.0243988,-158
1737823572.029399,-175
1737823572.0343988,-173
1737823572.039399,-153
1737823572.0443988,-130
1737823572.049399,-110
1737823572.0543988,-96
1737823572.059399,-88
1737823572.0643988,-91
1737823572.0693989,-97
1737823572.0743988,-99
1737823572.0793989,-101
1737823572.0848215,-120
1737823572.0898213,-106
1737823572.0948215,3
1737823572.0998213,252
1737823572.1048214,721
1737823572.1098213,1414
1737823572.1148214,1982
1737823572.1198213,1809
1737823572.1248214,677
1737823572.1298213,-838
1737823572.1348214,-1834
1737823572.1398213,-1951
1737823572.1448214,-1548
1737823572.1498213,-1100
1737823572.1548214,-757
1737823572.1598215,-477
1737823572.165244,-262
1737823572.1702442,-154
1737823572.175244,-114
1737823572.1802442,-106
1737823572.185244,-93
1737823572.1902442,-79
1737823572.1952443,-65
1737823572.2002442,-62
1737823572.2052443,-69
1737823572.2102442,-74
1737823572.2152443,-75
1737823572.2202442,-72
1737823572.2252443,-73
1737823572.2302442,-79
1737823572.2352443,-75
1737823572.2402442,-76
1737823572.245667,-74
1737823572.250667,-74
1737823572.255667,-70
1737823572.260667,-65
1737823572.265667,-69
1737823572.270667,-77
1737823572.275667,-81
1737823572.280667,-73
1737823572.285667,-54
1737823572.290667,-46
1737823572.295667,-45
1737823572.300667,-49
1737823572.305667,-52
1737823572.310667,-48
1737823572.315667,-42
1737823572.320667,-44
1737823572.3260899,-43
1737823572.3310897,-43
1737823572.3360898,-46
1737823572.3410897,-51
1737823572.3460898,-61
1737823572.3510897,-72
1737823572.3560898,-74
1737823572.3610897,-69
1737823572.3660898,-63
1737823572.3710897,-61
1737823572.3760898,-68
1737823572.3810897,-76
1737823572.3860898,-86
1737823572.39109,-89
1737823572.3960898,-94
1737823572.40109,-94
1737823572.4065125,-100
1737823572.4115126,-108
1737823572.4165125,-122
1737823572.4215126,-141
1737823572.4265127,-154
1737823572.4315126,-160
1737823572.4365127,-155
1737823572.4415126,-144
1737823572.4465127,-134
1737823572.4515126,-125
1737823572.4565127,-118
1737823572.4615126,-117
1737823572.4665127,-121
1737823572.4715126,-122
1737823572.4765127,-106
1737823572.4815125,-89
1737823572.4869354,-84
1737823572.4919355,-90
1737823572.4969354,-98
1737823572.5019355,-96
1737823572.5069354,-86
1737823572.5119355,-82
1737823572.5169353,-89
1737823572.5219355,-96
1737823572.5269353,-92
1737823572.5319355,-81
1737823572.5369353,-83
1737823572.5419354,-95
1737823572.5469353,-109
1737823572.5519354,-110
1737823572.5569353,-97
1737823572.5619354,-82
1737823572.567358,-74
1737823572.572358,-78
1737823572.577358,-88
1737823572.582358,-94
1737823572.587358,-96
1737823572.592358,-94
1737823572.597358,-97
1737823572.602358,-95
1737823572.607358,-95
1737823572.612358,-98
1737823572.617358,-101
1737823572.622358,-109
1737823572.627358,-112
1737823572.632358,-106
1737823572.637358,-98
1737823572.642358,-95
1737823572.647781,-99
1737823572.6527808,-103
1737823572.657781,-103
1737823572.6627808,-98
1737823572.6677809,-97
1737823572.6727808,-104
1737823572.6777809,-106
1737823572.6827807,-99
1737823572.6877809,-90
1737823572.6927807,-88
1737823572.6977808,-94
1737823572.7027807,-96
1737823572.7077808,-95
1737823572.7127807,-95
1737823572.7177808,-97
1737823572.7227807,-109
1737823572.7282035,-111
1737823572.7332036,-111
1737823572.7382035,-104
1737823572.7432036,-95
1737823572.7482035,-93
1737823572.7532036,-92
1737823572.7582035,-81
1737823572.7632036,-54
1737823572.7682035,-22
1737823572.7732036,-2
1737823572.7782035,-7
1737823572.7832036,-43
1737823572.7882037,-78
1737823572.7932036,-89
1737823572.7982037,-84
1737823572.8032036,-74
1737823572.8086264,-89
1737823572.8136263,-124
1737823572.8186264,-162
1737823572.8236265,-176
1737823572.8286264,-165
1737823572.8336265,-144
